time,channel1
0.0,-0.0016631247595697357
0.004,-0.00167447189583046
0.008,-0.0016694955034449305
0.012,-0.0016671154896953295
0.016,-0.0016682453952128167
0.02,-0.0016762028149210789
0.024,-0.0016913723975069202
0.028,-0.0017063015746635087
0.032,-0.001705412074575274
0.036000000000000004,-0.0016905790595903867
0.04,-0.0016870210592374475
0.044,-0.0016859632753487357
0.048,-0.0016843044778868926
0.052000000000000005,-0.0016799771801603452
0.056,-0.001672572692939364
0.06,-0.0016723082469671862
0.064,-0.0016827658831396757
0.068,-0.0016903146136182086
0.07200000000000001,-0.0016814917343646368
0.076,-0.0016752892742899188
0.08,-0.0016747603823455632
0.084,-0.0016572107860101204
0.088,-0.001654446123573715
0.092,-0.0016834630588845084
0.096,-0.0016918291678225002
0.1,-0.0016850016536317251
0.10400000000000001,-0.001680770518076879
0.108,-0.001688247126926636
0.112,-0.0016870931808662234
0.116,-0.0016874778295530276
0.12,-0.001671659152308204
0.124,-0.0016650960840896073
0.128,-0.0016703369224473146
0.132,-0.0016750729094035916
0.136,-0.0016766836257795842
0.14,-0.0016861315591492126
0.14400000000000002,-0.0016954112087183644
0.148,-0.0016974306143240866
0.152,-0.0016961083844631972
0.156,-0.0016935841274560446
0.16,-0.0016871893430379244
0.164,-0.0016761306932923032
0.168,-0.001673654517371001
0.17200000000000001,-0.001681251328935384
0.176,-0.001681419612735861
0.18,-0.0016747603823455632
0.184,-0.001656441488636512
0.188,-0.0016530036909981993
0.192,-0.001653797028914733
0.196,-0.00167218804425256
0.2,-0.0016855545861190063
0.20400000000000001,-0.0016763230176357051
0.20800000000000002,-0.0016801695045037474
0.212,-0.0016875259106388782
0.216,-0.0016944015059155034
0.22,-0.0016921897759663792
0.224,-0.0016862277213209136
0.228,-0.001682333153367021
0.232,-0.0016686781249854715
0.23600000000000002,-0.0016596148403026467
0.24,-0.001660191813332853
0.244,-0.0016706975305911937
0.248,-0.0016662740706929451
0.252,-0.001661177475592789
0.256,-0.0016630285973980347
0.26,-0.0016732217875983463
0.264,-0.001672476530767663
0.268,-0.0016448058658606846
0.272,-0.0016408632168209414
0.276,-0.001677308679895641
0.28,-0.0016896655189592266
0.28400000000000003,-0.0016855786266619316
0.28800000000000003,-0.0016832947750840316
0.292,-0.0016967574791221791
0.296,-0.0016966853574934034
0.3,-0.0016852660996039032
0.304,-0.0016930311949687634
0.308,-0.0016865402483789422
0.312,-0.0016776692880395199
0.316,-0.0016667789220943757
0.32,-0.0016737747200856272
0.324,-0.0016695435845307809
0.328,-0.0016563934075506613
0.332,-0.0016472820417819866
0.336,-0.0016413680682223718
0.34,-0.0016618986918805472
0.34400000000000003,-0.0016630045568551094
0.34800000000000003,-0.0016590619078153657
0.352,-0.0016563693670077363
0.356,-0.0016581243266412804
0.36,-0.001675120990489442
0.364,-0.0016800012207032705
0.368,-0.001671827436108681
0.372,-0.0016732458281412716
0.376,-0.0016778375718399967
0.38,-0.0016649278002891304
0.384,-0.001657258867095971
0.388,-0.0016722601658813356
0.392,-0.0016747123012597126
0.396,-0.0016527392450260215
0.4,-0.0016414401898511477
0.404,-0.0016501669069330183
0.40800000000000003,-0.001647137798524435
0.41200000000000003,-0.0016532440964274519
0.41600000000000004,-0.0016610332323352373
0.42,-0.0016531238937128256
0.424,-0.0016562491642931098
0.428,-0.0016543980424878646
0.432,-0.0016557683534346047
0.436,-0.0016527632855689468
0.44,-0.0016476426499258657
0.444,-0.0016538451100005834
0.448,-0.0016589417051007394
0.452,-0.0016530036909981993
0.456,-0.0016580522050125045
0.46,-0.0016825495182533484
0.464,-0.001680506072104701
0.468,-0.0016676203410967599
0.47200000000000003,-0.0016639180974862694
0.47600000000000003,-0.001664062340743821
0.48,-0.001656345326464811
0.484,-0.001661177475592789
0.488,-0.0016674039762104326
0.492,-0.001649589933902812
0.496,-0.0016441327306587772
0.5,-0.001644661622603133
0.504,-0.001639565027502977
0.508,-0.0016537249072859572
0.512,-0.001668894489871799
0.516,-0.001666370232864646
0.52,-0.0016615861648225183
0.524,-0.0016632209217414366
0.528,-0.0016674760978392083
0.532,-0.0016508640826778508
0.536,-0.0016471858796102857
0.54,-0.0016506717583344489
0.544,-0.0016462482984362003
0.548,-0.0016467050687517804
0.552,-0.001677765450211221
0.556,-0.0016954833303471403
0.56,-0.001675481598633321
0.5640000000000001,-0.0016598071646460489
0.5680000000000001,-0.0016689666115005746
0.5720000000000001,-0.0016671395302382546
0.5760000000000001,-0.0016618986918805472
0.58,-0.001659278272701693
0.584,-0.0016591340294441414
0.588,-0.0016529315693694236
0.592,-0.0016372090542963013
0.596,-0.0016374735002684792
0.6,-0.0016382187570991623
0.604,-0.00165396531271521
0.608,-0.001676948071751762
0.612,-0.0016710340981921472
0.616,-0.0016619227324234725
0.62,-0.0016488446770721288
0.624,-0.0016316076077947147
0.628,-0.0016407670546492402
0.632,-0.0016777414096682958
0.636,-0.0016814676938217115
0.64,-0.0016698561115888093
0.644,-0.00165396531271521
0.648,-0.0016354060135769064
0.652,-0.001638723608500593
0.656,-0.0016447097036889834
0.66,-0.0016249964584902673
0.664,-0.001649133163587232
0.668,-0.001681611937079263
0.672,-0.0016607447458201342
0.676,-0.0016426181764544856
0.68,-0.0016524988395967687
0.684,-0.0016602158538757783
0.6880000000000001,-0.001658725340214412
0.6920000000000001,-0.001646849312009332
0.6960000000000001,-0.0016562491642931098
0.7000000000000001,-0.001654518245202491
0.704,-0.0016499505420466908
0.708,-0.001661970813509323
0.712,-0.0016661538679783189
0.716,-0.0016716110712223537
0.72,-0.0016706013684194925
0.724,-0.001658725340214412
0.728,-0.0016321124591961453
0.732,-0.0016229049312557694
0.736,-0.001626871620838438
0.74,-0.0016299488103328715
0.744,-0.0016226404852835916
0.748,-0.0016123992139974292
0.752,-0.001625501309891698
0.756,-0.0016393246220737245
0.76,-0.0016430989873129909
0.764,-0.0016557923939775298
0.768,-0.0016531238937128256
0.772,-0.001637545621897255
0.776,-0.0016473782039536876
0.78,-0.0016608889890776858
0.784,-0.0016504313529051961
0.788,-0.001661201516135714
0.792,-0.0016637257731428672
0.796,-0.0016423056493964571
0.8,-0.0016484359878423992
0.804,-0.0016559366372350815
0.808,-0.001646584866037154
0.812,-0.0016343241891452695
0.8160000000000001,-0.0016279294047271495
0.8200000000000001,-0.0016255493909775485
0.8240000000000001,-0.001633627013400437
0.8280000000000001,-0.0016407670546492402
0.8320000000000001,-0.0016376177435260307
0.836,-0.0016348050000037748
0.84,-0.0016383389598137888
0.844,-0.0016408632168209414
0.848,-0.0016385793652430414
0.852,-0.0016412478655077455
0.856,-0.00162523686391952
0.86,-0.001611365470651643
0.864,-0.0016281938506993274
0.868,-0.001654902893889295
0.872,-0.0016624035432819778
0.876,-0.0016441327306587772
0.88,-0.0016389399733869204
0.884,-0.0016473301228678372
0.888,-0.0016550952182326972
0.892,-0.0016543740019449393
0.896,-0.0016429787845983646
0.9,-0.001643291311656393
0.904,-0.0016492052852160077
0.908,-0.0016459117308352466
0.912,-0.001642017162881354
0.916,-0.0016343001486023442
0.92,-0.0016328336754839032
0.924,-0.0016304777022772274
0.928,-0.0016274726344115695
0.932,-0.0016154283224060126
0.936,-0.0016238905935157053
0.9400000000000001,-0.00163300195928438
0.9440000000000001,-0.0016300449725045727
0.9480000000000001,-0.0016286506210149074
0.9520000000000001,-0.0016185055119004462
0.9560000000000001,-0.0016207412823924959
0.96,-0.0016378581489552835
0.964,-0.0016296603238177684
0.968,-0.001634083783716017
0.972,-0.0016532681369703772
0.976,-0.0016585810969568604
0.98,-0.001648051339155595
0.984,-0.0016361272298646642
0.988,-0.0016344924729457463
0.992,-0.0016416084736516246
0.996,-0.0016453347578050403
1.0,-0.0016418007979950267
1.004,-0.0016484600283853245
1.008,-0.001650960244849552
1.012,-0.0016462482984362003
1.016,-0.0016486523527287267
1.02,-0.001647402244496613
1.024,-0.0016530036909981993
1.028,-0.0016615380837366677
1.032,-0.0016501909474759436
1.036,-0.0016522103530816656
1.04,-0.0016717793550228303
1.044,-0.001666802962637301
1.048,-0.0016661538679783189
1.052,-0.0016573069481818214
1.056,-0.0016345645945745222
1.06,-0.001635646419006159
1.064,-0.0016299247697899462
1.068,-0.0016194671336174568
1.072,-0.001631246999650836
1.076,-0.001643844244143674
1.08,-0.001658172407727131
1.084,-0.0016567780562374657
1.088,-0.0016518016638519361
1.092,-0.001664062340743821
1.096,-0.0016507919610490752
1.1,-0.0016255734315204736
1.104,-0.0016205970391349443
1.108,-0.0016482677040419226
1.112,-0.0016584368536993088
1.116,-0.001659735043017273
1.12,-0.001657090583295494
1.124,-0.0016524747990538436
1.1280000000000001,-0.001642834541340813
1.1320000000000001,-0.0016460078930069478
1.1360000000000001,-0.0016512968124505055
1.1400000000000001,-0.001644397176630955
1.1440000000000001,-0.0016584368536993088
1.1480000000000001,-0.0016726928956539904
1.1520000000000001,-0.00167173127393698
1.156,-0.0016652643678900841
1.16,-0.001664903759746205
1.164,-0.0016605283809338067
1.168,-0.001654902893889295
1.172,-0.001630621945534779
1.176,-0.0016306459860777043
1.18,-0.001656898258952092
1.184,-0.001645839609206471
1.188,-0.0016360551082358885
1.192,-0.0016372811759250772
1.196,-0.0016219673500816841
1.2,-0.001637257135382152
1.204,-0.0016651441651754579
1.208,-0.0016648316381174294
1.212,-0.001662066975681024
1.216,-0.001656441488636512
1.22,-0.0016536768262001068
1.224,-0.00165442208303079
1.228,-0.0016542778397732384
1.232,-0.001657715637411551
1.236,-0.0016583406915276079
1.24,-0.0016626679892541556
1.244,-0.0016664183139504967
1.248,-0.0016598312051889742
1.252,-0.001644926068575311
1.256,-0.0016436759603431971
1.26,-0.0016675001383821336
1.264,-0.0016668750842660767
1.268,-0.001647594568840015
1.272,-0.0016483638662136235
1.276,-0.0016441086901158519
1.28,-0.001637185013753376
1.284,-0.0016588695834719636
1.288,-0.0016723082469671862
1.292,-0.001662427583824903
1.296,-0.0016501669069330183
1.3,-0.0016511285286500289
1.304,-0.001646945474181033
1.308,-0.0016492533663018583
1.312,-0.0016491572041301573
1.316,-0.001647762852640492
1.32,-0.0016464406227796025
1.324,-0.001647306082324912
1.328,-0.0016394929058742014
1.332,-0.0016374013786397035
1.336,-0.0016373292570109276
1.34,-0.001642017162881354
1.344,-0.001640454527591212
1.348,-0.0016195152147033074
1.352,-0.0016129521464847104
1.356,-0.001627809202012523
1.36,-0.0016416565547374752
1.364,-0.0016518497449377867
1.368,-0.0016642065840013725
1.372,-0.001652426717967993
1.3760000000000001,-0.0016391082571873973
1.3800000000000001,-0.0016299007292470212
1.3840000000000001,-0.0016193950119886811
1.3880000000000001,-0.0016358147028066358
1.3920000000000001,-0.0016382908787279382
1.3960000000000001,-0.0016378821894982088
1.4000000000000001,-0.0016417767574521014
1.4040000000000001,-0.0016411997844218951
1.408,-0.0016358147028066358
1.412,-0.0016283140534139537
1.416,-0.001620500876963243
1.42,-0.001618217025385343
1.424,-0.001643940406315375
1.428,-0.0016747123012597126
1.432,-0.0016690146925864252
1.436,-0.0016388678517581445
1.44,-0.00162523686391952
1.444,-0.0016243473638312854
1.448,-0.001618745917329699
1.452,-0.0016086969703869385
1.456,-0.0016023502670546692
1.46,-0.0016072064567255722
1.464,-0.001623049174513321
1.468,-0.001624058877316182
1.472,-0.0016308383104211063
1.476,-0.001641560392565774
1.48,-0.001639084216644472
1.484,-0.0016377379462406572
1.488,-0.001638098554384536
1.492,-0.0016382908787279382
1.496,-0.0016314393239942378
1.5,-0.001616462065751799
1.504,-0.0016235540259147516
1.508,-0.001636463797465618
1.512,-0.0016216307824807306
1.516,-0.0016180487415848662
1.52,-0.001621510579766104
1.524,-0.001627713039840822
1.528,-0.0016165341873805748
1.532,-0.001616197619779621
1.536,-0.001639276540987874
1.54,-0.001639997757275632
1.544,-0.0016300690130474978
1.548,-0.0016254532288058473
1.552,-0.001627160107353541
1.556,-0.0016280736479847011
1.56,-0.0016192267281882043
1.564,-0.0016213182554227022
1.568,-0.0016203325931627662
1.572,-0.0016006674290499007
1.576,-0.0016108606192502123
1.58,-0.0016146830655753295
1.584,-0.0016256455531492495
1.588,-0.0016364878380085433
1.592,-0.001623121296142097
1.596,-0.0016064852404378144
1.6,-0.0016012684426230323
1.604,-0.001612279011282803
1.608,-0.0016285544588432064
1.612,-0.001640646851934614
1.616,-0.0016314152834513125
1.62,-0.0016195632957891578
1.624,-0.001617303484754183
1.6280000000000001,-0.0016189142011301758
1.6320000000000001,-0.0016303334590196759
1.6360000000000001,-0.0016377379462406572
1.6400000000000001,-0.0016351656081476538
1.6440000000000001,-0.0016290112291587862
1.6480000000000001,-0.0016311267969362094
1.6520000000000001,-0.0016309344725928075
1.6560000000000001,-0.0016194671336174568
1.6600000000000001,-0.0016096345515610238
1.6640000000000001,-0.0016070381729250956
1.668,-0.0016221837149680116
1.672,-0.0016225202825689653
1.676,-0.0016054034160061775
1.68,-0.0016153081196913863
1.684,-0.00163208841865322
1.688,-0.0016207172418495706
1.692,-0.0016080478757279565
1.696,-0.001605980389036384
1.7,-0.0016142743763456
1.704,-0.00161838530918582
1.708,-0.001614995592633358
1.712,-0.0016112212273940913
1.716,-0.0016099711191619776
1.72,-0.001614923471004582
1.724,-0.0016217029041095063
1.728,-0.001617375606382959
1.732,-0.00159970580733289
1.736,-0.001595955482636549
1.74,-0.001606365037723188
1.744,-0.001603528253658007
1.748,-0.0016083363622430597
1.752,-0.0016135772006007673
1.756,-0.0016094181866746966
1.76,-0.0015954265906921933
1.764,-0.0015990086315880575
1.768,-0.0016173275252971083
1.772,-0.0016158129710928167
1.776,-0.0016165582279234999
1.78,-0.001619587336332083
1.784,-0.001621678863566581
1.788,-0.001624491607088837
1.792,-0.0016233617015713494
1.796,-0.0016171352009537064
1.8,-0.0016117020382525964
1.804,-0.0016118943625959986
1.808,-0.0015954746717780437
1.812,-0.001596219928608727
1.816,-0.0015967488205530828
1.82,-0.001603239767142904
1.824,-0.0016072064567255722
1.828,-0.001600330861448947
1.832,-0.0015853776437494327
1.836,-0.0015848247112621517
1.84,-0.0015923253606548342
1.844,-0.0015973498341262144
1.848,-0.0015945130500610333
1.852,-0.001595498712320969
1.856,-0.0016061967539227112
1.86,-0.0015987441856158797
1.864,-0.0016044177537462418
1.868,-0.001626871620838438
1.872,-0.0016212461337939263
1.8760000000000001,-0.0016041773483169892
1.8800000000000001,-0.0016096345515610238
1.8840000000000001,-0.0016175919712692864
1.8880000000000001,-0.0016133367951715147
1.8920000000000001,-0.0016091056596166681
1.8960000000000001,-0.00161244729508328
1.9000000000000001,-0.0016153321602343116
1.9040000000000001,-0.0016062929160944122
1.9080000000000001,-0.0015918926308821795
1.9120000000000001,-0.0015798483188766222
1.9160000000000001,-0.0015827331840276538
1.92,-0.0015872528060976033
1.924,-0.0016058361457788324
1.928,-0.0016137695249441694
1.932,-0.0016177121739839127
1.936,-0.0016109087003360629
1.94,-0.0015902097928774113
1.944,-0.0015928782931421154
1.948,-0.0016010280371937797
1.952,-0.0015935273878010974
1.956,-0.0015975661990125418
1.96,-0.0016015569291381354
1.964,-0.0016038648212589608
1.968,-0.0016079757540991807
1.972,-0.001615837011635742
1.976,-0.0016155485251206389
1.98,-0.0016000183343909185
1.984,-0.0015836467246588138
1.988,-0.0015841275355173191
1.992,-0.0016004991452494238
1.996,-0.0016211018905363747
2.0,-0.0016101394029624544
2.004,-0.0016055716998066543
2.008,-0.0016074949432406753
2.012,-0.001594104360831304
2.016,-0.001586315224923518
2.02,-0.0015896087793042797
2.024,-0.001594585171689809
2.028,-0.0015930946580284427
2.032,-0.0015913877794807491
2.036,-0.0015929744553138164
2.04,-0.0015920609146826564
2.044,-0.001599321158646086
2.048,-0.0016237944313440042
2.052,-0.0016119664842247745
2.056,-0.0015805214540785296
2.06,-0.00159011363070571
2.064,-0.0016002587398201713
2.068,-0.0015965324556667553
2.072,-0.0015823725758837748
2.076,-0.0015755450616930001
2.08,-0.001591099292965646
2.084,-0.0015979748882422712
2.088,-0.0015979027666134953
2.092,-0.001597133469239887
2.096,-0.0016034801725721564
2.1,-0.0015999942938479932
2.104,-0.001596580536752606
2.108,-0.001595306387977567
2.112,-0.0015934312256293964
2.116,-0.0015916762659958523
2.12,-0.001595402550149268
2.124,-0.0016030474427995017
2.128,-0.001604610078089644
2.132,-0.0015996577262470397
2.136,-0.0016014848075093595
2.14,-0.0015888394819306712
2.144,-0.0015846564274616748
2.148,-0.0015699916962772643
2.152,-0.0015689098718456274
2.156,-0.0015931427391142933
2.16,-0.0016025666319409964
2.164,-0.0015965564962096806
2.168,-0.001595859320464848
2.172,-0.0016026627941126976
2.176,-0.0016027829968273239
2.18,-0.0016001385371055448
2.184,-0.0016009559155650038
2.188,-0.0015938158743162008
2.192,-0.001591099292965646
2.196,-0.001592205157940208
2.2,-0.0015889837251882228
2.204,-0.0015876614953273327
2.208,-0.00158148307579554
2.212,-0.00156823673664372
2.216,-0.0015512881538814092
2.22,-0.0015785260890157327
2.224,-0.0016076872675840775
2.228,-0.001608288281157209
2.232,-0.0016016771318527617
2.236,-0.0016057640241500565
2.24,-0.0016125915383408316
2.244,-0.0016142022547168241
2.248,-0.001604441794289167
2.2520000000000002,-0.0015925898066270123
2.2560000000000002,-0.0015890077657311481
2.2600000000000002,-0.0015858103735220874
2.2640000000000002,-0.0015864835087239949
2.2680000000000002,-0.0015860988600371905
2.2720000000000002,-0.0015889356441023722
2.2760000000000002,-0.0015905223199354395
2.2800000000000002,-0.0015902578739632617
2.2840000000000003,-0.001588550995415568
2.2880000000000003,-0.0015847285490904507
2.2920000000000003,-0.001588815441387746
2.2960000000000003,-0.0016102115245912301
2.3000000000000003,-0.0016142503358026747
2.3040000000000003,-0.0015959074015506986
2.308,-0.0015704003855069937
2.312,-0.001564486411947379
2.316,-0.0015819158055681948
2.32,-0.0015754729400642242
2.324,-0.0015613371008241694
2.328,-0.0015804493324497538
2.332,-0.0016028070373702492
2.336,-0.0016025906724839217
2.34,-0.0015984316585578512
2.344,-0.0015979268071564206
2.348,-0.0016052110916627755
2.352,-0.0016157889305498916
2.356,-0.0016131925519139632
2.36,-0.001595763158293147
2.364,-0.00157965599453322
2.368,-0.0015861709816659664
2.372,-0.0016004751047064985
2.376,-0.0016039609834306618
2.38,-0.0016175198496405105
2.384,-0.0016043937132033165
2.388,-0.0015588849654457927
2.392,-0.0015385707066739446
2.396,-0.001567058750040382
2.4,-0.0015922532390260586
2.404,-0.0015761460752661317
2.408,-0.001588911603559447
2.412,-0.0016048024024330459
2.416,-0.0016040571456023627
2.42,-0.0015914599011095248
2.424,-0.0015916762659958523
2.428,-0.0015901617117915607
2.432,-0.0015916281849100017
2.436,-0.0015880701845570628
2.44,-0.0015905944415642154
2.444,-0.0015821321704545222
2.448,-0.0015711937234235275
2.452,-0.0015648229795483326
2.456,-0.0015629478172001622
2.46,-0.0015589570870745684
2.464,-0.0015555914110650312
2.468,-0.0015784539673869568
2.472,-0.0015912194956802723
2.476,-0.001576266277980758
2.48,-0.0015596061817335506
2.484,-0.001576362440152459
2.488,-0.0015873970493551549
2.492,-0.0015896328198472048
2.496,-0.0015926138471699376
2.5,-0.0015970613476111112
2.504,-0.0015923013201119092
2.508,-0.0015980710504139722
2.512,-0.001598311455843225
2.516,-0.001599321158646086
2.52,-0.0016042735104886902
2.524,-0.00158874331975897
2.528,-0.0015723957505697907
2.532,-0.0015729967641429222
2.536,-0.0015714100883098547
2.54,-0.0015641979254322758
2.544,-0.0015704965476786947
2.548,-0.001586771995239098
2.552,-0.0015777087105562737
2.556,-0.0015733092912009507
2.56,-0.0015869402790395749
2.564,-0.0015881663467287638
2.568,-0.0015840794544314685
2.572,-0.0015752325346349717
2.576,-0.0015842958193177958
2.58,-0.0016056438214354302
2.584,-0.0015819879271969707
2.588,-0.0015648229795483326
2.592,-0.0015774683051270211
2.596,-0.0015865315898098455
2.6,-0.0015773240618694696
2.604,-0.0015788386160737612
2.608,-0.0015921330363114323
2.612,-0.0015784780079298821
2.616,-0.0015561924246381628
2.62,-0.001567058750040382
2.624,-0.0015947534554902859
2.628,-0.001595955482636549
2.632,-0.0015914599011095248
2.636,-0.0015923253606548342
2.64,-0.0015886231170443438
2.644,-0.0015849208734338527
2.648,-0.001583117832714458
2.652,-0.0015869883601254255
2.656,-0.0016022060237971176
2.66,-0.0015808820622224085
2.664,-0.0015751604130061958
2.668,-0.0015862911843805927
2.672,-0.0015754729400642242
2.676,-0.00157234766948394
2.68,-0.0015913396983948985
2.684,-0.0015955467934068196
2.688,-0.0015685733042446737
2.692,-0.0015596061817335506
2.696,-0.0015855940086357601
2.7,-0.0015971815503257375
2.704,-0.0015982633747573744
2.708,-0.0015913877794807491
2.712,-0.001581194589280437
2.716,-0.0015747036426906158
2.72,-0.0015782135619577043
2.724,-0.001583406319229561
2.728,-0.0015854497653782086
2.732,-0.0015983835774720007
2.736,-0.0016142984168885251
2.74,-0.0015991769153885344
2.744,-0.0015722755478551642
2.748,-0.0015441000315467553
2.7520000000000002,-0.001542176788112734
2.7560000000000002,-0.0015736218182589791
2.7600000000000002,-0.0015874451304410055
2.7640000000000002,-0.0016031916860570533
2.7680000000000002,-0.0016020858210824911
2.7720000000000002,-0.0015778048727279749
2.7760000000000002,-0.0015659288445228948
2.7800000000000002,-0.0015684050204441968
2.7840000000000003,-0.0015878538196707353
2.7880000000000003,-0.0015855218870069842
2.7920000000000003,-0.0015815792379672412
2.7960000000000003,-0.0015768672915538896
2.8000000000000003,-0.0015786222511874337
2.8040000000000003,-0.0015812426703662875
2.8080000000000003,-0.001578646291730359
2.8120000000000003,-0.0015740064669457832
2.816,-0.0015874932115268559
2.82,-0.001591099292965646
2.824,-0.0015814109541667644
2.828,-0.0015567934382112944
2.832,-0.0015504226943360998
2.836,-0.0015566491949537428
2.84,-0.0015728525208853707
2.844,-0.0015827331840276538
2.848,-0.0015840554138885432
2.852,-0.001583839049002216
2.856,-0.0015825168191413263
2.86,-0.001576362440152459
2.864,-0.0015843679409465717
2.868,-0.001588550995415568
2.872,-0.0015787664944449853
2.876,-0.00159102717133687
2.88,-0.0016045619970037933
2.884,-0.0015863392654664433
2.888,-0.00153950828784803
2.892,-0.0015172227045563106
2.896,-0.0015470329777836375
2.9,-0.0015754008184354486
2.904,-0.001579103062045939
2.908,-0.0015818196433964938
2.912,-0.0015767711293821886
2.916,-0.0015597023439052515
2.92,-0.0015581156680721843
2.924,-0.0015836948057446642
2.928,-0.0015893443333321016
2.932,-0.001588647157587269
2.936,-0.001580737818964857
2.94,-0.0015792713458464159
2.944,-0.0015822764137120738
2.948,-0.0015764826428670852
2.952,-0.0015657124796365674
2.956,-0.0015678520879569158
2.96,-0.0015721793856834632
2.964,-0.0015711937234235275
2.968,-0.00156777996632814
2.972,-0.0015658326823511936
2.976,-0.0015609764926802906
2.98,-0.0015615294251675716
2.984,-0.0015805214540785296
2.988,-0.0015663856148384748
2.992,-0.0015655682363790158
2.996,-0.0015731890884863242
3.0,-0.0015715783721103316
3.004,-0.001567683804156439
3.008,-0.0015735496966302032
3.012,-0.0015611928575666179
3.016,-0.0015567934382112944
3.02,-0.0015472974237558156
3.024,-0.001555471208350405
3.028,-0.0015663375337526242
3.032,-0.0015801368053917253
3.036,-0.0015874691709839306
3.04,-0.001569510885418759
3.044,-0.001562923776657237
3.048,-0.001572059182968837
3.052,-0.0015709533179942747
3.056,-0.001566674101353578
3.06,-0.0015667221824394284
3.064,-0.001567587641984738
3.068,-0.0015640536821747242
3.072,-0.0015641498443464254
3.076,-0.001569967655734339
3.08,-0.0015779010348996759
3.084,-0.0015769874942685158
3.088,-0.001564774898462482
3.092,-0.0015621304387407032
3.096,-0.0015712898855952285
3.1,-0.0015678280474139905
3.104,-0.001571337966681079
3.108,-0.0015779250754426012
3.112,-0.0015904982793925144
3.116,-0.0015787664944449853
3.12,-0.0015583560735014368
3.124,-0.0015592696141325968
3.128,-0.0015716504937391075
3.132,-0.0015727803992565948
3.136,-0.0015656163174648664
3.14,-0.0015656163174648664
3.144,-0.0015620583171119273
3.148,-0.0015658086418082686
3.152,-0.0015627314523138348
3.156,-0.001566770263525279
3.16,-0.0015682126961007949
3.164,-0.0015773240618694696
3.168,-0.0015691262367319547
3.172,-0.0015534998838305334
3.176,-0.0015362868550960447
3.18,-0.0015127271230292864
3.184,-0.001554389383918768
3.188,-0.0015841996571460948
3.192,-0.0015666981418965033
3.196,-0.0015643421686898273
3.2,-0.0015748719264910927
3.204,-0.0015747757643193917
3.208,-0.0015671068311262327
3.212,-0.0015717706964537338
3.216,-0.0015774442645840958
3.22,-0.001564847020091258
3.224,-0.0015593657763042978
3.228,-0.001572059182968837
3.232,-0.001586771995239098
3.236,-0.0015816032785101663
3.24,-0.0015586686005594653
3.244,-0.0015464800452963565
3.248,-0.0015497495591341923
3.2520000000000002,-0.0015387630310173467
3.2560000000000002,-0.0015335462332025647
3.2600000000000002,-0.0015392919229617026
3.2640000000000002,-0.0015476339913567691
3.2680000000000002,-0.001567130871669158
3.2720000000000002,-0.0015607601277939631
3.2760000000000002,-0.0015644623714044536
3.2800000000000002,-0.0015823244947979244
3.2840000000000003,-0.001573068885771698
3.2880000000000003,-0.0015647027768337064
3.2920000000000003,-0.001561938114397301
3.2960000000000003,-0.0015565049516961913
3.3000000000000003,-0.0015487398563313313
3.3040000000000003,-0.0015406622339084425
3.3080000000000003,-0.0015505909781365766
3.3120000000000003,-0.001572419791112716
3.3160000000000003,-0.0015680203717573927
3.3200000000000003,-0.0015718668586254347
3.3240000000000003,-0.0015702080611635916
3.3280000000000003,-0.0015710254396230506
3.332,-0.00157919922421764
3.336,-0.0015691021961890296
3.34,-0.0015665058175531011
3.344,-0.0015638132767454716
3.348,-0.0015579714248146327
3.352,-0.0015266946784688645
3.356,-0.0015001779596222986
3.36,-0.0015276803407288004
3.364,-0.0015722034262263885
3.368,-0.0015780693187001527
3.372,-0.00156823673664372
3.376,-0.001570135939534816
3.38,-0.0015694628043329084
3.384,-0.0015645344930332295
3.388,-0.001550446734879025
3.392,-0.0015603033574783831
3.396,-0.0015626833712279842
3.4,-0.0015612168981095432
3.404,-0.0015675636014418127
3.408,-0.00155864456001654
3.412,-0.0015515285593106617
3.416,-0.0015515045187677367
3.42,-0.0015484273292733029
3.424,-0.0015451337748925418
3.428,-0.0015356377604370626
3.432,-0.0015268629622693414
3.436,-0.0015428980044004921
3.44,-0.0015808099405936328
3.444,-0.0015795357918185937
3.448,-0.0015671068311262327
3.452,-0.0015637171145737705
3.456,-0.0015679482501286168
3.46,-0.001572900601971221
3.464,-0.001578261643043555
3.468,-0.0015715783721103316
3.472,-0.0015503265321643986
3.476,-0.001531839354654871
3.48,-0.0015484754103591535
3.484,-0.0015513362349672598
3.488,-0.0015405660717367415
3.492,-0.0015419604232264068
3.496,-0.0015365993821540732
3.5,-0.0015218384887979615
3.504,-0.0015315268275968425
3.508,-0.0015438115450316522
3.512,-0.0015544374650046187
3.516,-0.001556769397668369
3.52,-0.001552826748628626
3.524,-0.0015621063981977779
3.528,-0.0015762181968949074
3.532,-0.0015585724383877643
3.536,-0.0015476580318996944
3.54,-0.001544628923491111
3.544,-0.0015319114762836468
3.548,-0.0015303248004505793
3.552,-0.0015314306654251415
3.556,-0.0015211893941389793
3.56,-0.001527271651499071
3.564,-0.0015492206671898366
3.568,-0.0015529469513432524
3.572,-0.0015418642610547056
3.576,-0.0015434268963448478
3.58,-0.0015544855460904693
3.584,-0.0015491004644752103
3.588,-0.001558933046531643
3.592,-0.0015545336271763196
3.596,-0.0015597744655340274
3.6,-0.0015479705589577228
3.604,-0.0015410949636810974
3.608,-0.0015319114762836468
3.612,-0.0015309738951095615
3.616,-0.0015283053948448573
3.62,-0.0015388111121031973
3.624,-0.0015398448554489836
3.628,-0.0015393640445904783
3.632,-0.0015356377604370626
3.636,-0.001528906408417989
3.64,-0.0015323922871421521
3.644,-0.0015236415295173562
3.648,-0.001532584611485554
3.652,-0.0015413113285674246
3.656,-0.0015471531804982638
3.66,-0.0015533075594871314
3.664,-0.001546263680410029
3.668,-0.0015406862744513678
3.672,-0.0015358541253233898
3.676,-0.0015270312460698183
3.68,-0.0015470570183265628
3.684,-0.0015566972760395934
3.688,-0.0015511919917097082
3.692,-0.001535493517179511
3.696,-0.0015193382723337338
3.7,-0.0015107317579664895
3.704,-0.0015295555030769709
3.708,-0.0015386668688456458
3.712,-0.0015297237868774477
3.716,-0.0015227760699720468
3.72,-0.0015304690437081309
3.724,-0.0015277765029005014
3.728,-0.0015197950426493138
3.732,-0.0015177275559577412
3.736,-0.0015178477586723675
3.74,-0.0014998894731071955
3.744,-0.0014945284320348618
3.748,-0.0015131117717160907
3.7520000000000002,-0.001530565205879832
3.7560000000000002,-0.0015359983685809416
3.7600000000000002,-0.0015469848966977871
3.7640000000000002,-0.0015486677347025554
3.7680000000000002,-0.0015447731667486628
3.7720000000000002,-0.0015348684630634541
3.7760000000000002,-0.0015215980833687087
3.7800000000000002,-0.0015221029347701393
3.7840000000000003,-0.0015281611515873057
3.7880000000000003,-0.0015408064771659943
3.7920000000000003,-0.001548619653616705
3.7960000000000003,-0.0015196027183059116
3.8000000000000003,-0.0015096739740777779
3.8040000000000003,-0.0015100826633075075
3.8080000000000003,-0.0015096739740777779
3.8120000000000003,-0.001513616623117521
3.8160000000000003,-0.0015086883118178422
3.8200000000000003,-0.0015041927302908177
3.8240000000000003,-0.001504865865492725
3.8280000000000003,-0.001514337839405279
3.8320000000000003,-0.0015142176366906527
3.8360000000000003,-0.001515059055693037
3.84,-0.0015253484080650498
3.844,-0.0015238578944036835
3.848,-0.001519434434505435
3.852,-0.0015134002582311938
3.856,-0.001512871366286838
3.86,-0.0015086402307319916
3.864,-0.0014962112700396303
3.868,-0.0014966680403552103
3.872,-0.0015090489199617212
3.876,-0.0015069814332701482
3.88,-0.0014968122836127619
3.884,-0.0014991442162765123
3.888,-0.0014947447969211893
3.892,-0.0015223433401993919
3.896,-0.0015265744757542382
3.9,-0.001503303230202583
3.904,-0.0014926051886008408
3.908,-0.001492076296656485
3.912,-0.0015059957710102125
3.916,-0.0015058274872097356
3.92,-0.0015096018524490022
3.924,-0.001506765068383821
3.928,-0.0015045052573488462
3.932,-0.001507245879242326
3.936,-0.0015228481916008225
3.94,-0.001528281354301932
3.944,-0.0015227520294291215
3.948,-0.0015166697720690296
3.952,-0.0015007549326525051
3.956,-0.0015014280678544124
3.96,-0.0015083277036739631
3.964,-0.0014978941080443988
3.968,-0.0015018367570841418
3.972,-0.001499937554193046
3.976,-0.0014906579046238945
3.98,-0.001479599254878273
3.984,-0.0014684444429609506
3.988,-0.001488061525987966
3.992,-0.0015101307443933579
3.996,-0.001507702649557906
4.0,-0.0015086883118178422
4.0040000000000004,-0.0015129915690014642
4.008,-0.0015144340015769801
4.0120000000000005,-0.001512222271627856
4.016,-0.00151991524536394
4.0200000000000005,-0.00151900170473278
4.024,-0.0015088806361612443
4.0280000000000005,-0.0014868114177558523
4.032,-0.001468300199703399
4.0360000000000005,-0.0014913310398258018
4.04,-0.0015082075009593369
4.0440000000000005,-0.0014960429862391534
4.048,-0.0014830130119736606
4.0520000000000005,-0.0014885663773893966
4.056,-0.0015086883118178422
4.0600000000000005,-0.0015065246629545682
4.064,-0.0014999135136501208
4.0680000000000005,-0.0014969324863273882
4.072,-0.0015145782448345317
4.0760000000000005,-0.0015203239345936699
4.08,-0.0015152032989505886
4.0840000000000005,-0.0015049620276644262
4.088,-0.0014906338640809692
4.0920000000000005,-0.0014719784027709647
4.096,-0.0014787818764188142
4.1,-0.0014834697822892408
4.104,-0.0014831091741453616
4.108,-0.0014892875936771545
4.112,-0.0014944563104060862
4.116,-0.0014974373377288188
4.12,-0.0015032311085738071
4.124,-0.0015030628247733302
4.128,-0.0015046014195205471
4.132,-0.0015038080816040134
4.136,-0.0015021733246850955
4.14,-0.0014914031614545777
4.144,-0.001492172458828186
4.148,-0.0015026781760865261
4.152,-0.0015078949739013084
4.156,-0.0015101788254792085
4.16,-0.0015041927302908177
4.164,-0.0015022935273997218
4.168,-0.0014870277826421797
4.172,-0.0014673626185293138
4.176,-0.0014632757262320192
4.18,-0.0014784693493607858
4.184,-0.0014946245942065628
4.188,-0.0015011876624251598
4.192,-0.0014900088099649123
4.196,-0.0014939754995475809
4.2,-0.0015045052573488462
4.204,-0.001507606487386205
4.208,-0.0015011876624251598
4.212,-0.0014962353105825556
4.216,-0.0014959708646103775
4.22,-0.001497196932299566
4.224,-0.0014965718781835091
4.228,-0.0014888067828186492
4.232,-0.001489600120735183
4.236,-0.0014863306068973472
4.24,-0.001482604322743931
4.244,-0.001486042120382244
4.248,-0.001480320471166031
4.252,-0.0014667856454991075
4.256,-0.0014821956335142016
4.26,-0.0014896962829068839
4.264,-0.0014769067140706436
4.268,-0.0014915474047121292
4.272,-0.0015184006911596484
4.276,-0.0015037119194323124
4.28,-0.001477387524929149
4.284,-0.0014751036733512489
4.288,-0.0014826764443727069
4.292,-0.0014777240925301026
4.296,-0.0014789020791334405
4.3,-0.0014853689851803365
4.304,-0.0014899126477932114
4.308,-0.0014821715929712763
4.312,-0.0014785414709895615
4.316,-0.0014636603749188233
4.32,-0.0014544768875213727
4.324,-0.0014633238073178696
4.328,-0.001478228943931533
4.332,-0.0014869556610134038
4.336,-0.0014836380660897177
4.34,-0.0014814744172264437
4.344,-0.0014900809315936882
4.348,-0.0014968603646986125
4.352,-0.0014910425533106986
4.356,-0.0014922926615428124
4.36,-0.001476834592441868
4.364,-0.0014665692806127802
4.368,-0.0014807051198528353
4.372,-0.0014790944034768427
4.376,-0.0014823879578576037
4.38,-0.001466449077898154
4.384,-0.0014542605226350455
4.388,-0.001461160158454596
4.392,-0.0014759931734394836
4.396,-0.001472098605485591
4.4,-0.00147245921362947
4.404,-0.001472387092000694
4.408,-0.0014684925240468012
4.412,-0.0014738054840332847
4.416,-0.001478589552075412
4.42,-0.0014731804299172278
4.424,-0.0014760652950682595
4.428,-0.0014761614572399604
4.432,-0.0014718582000563384
4.436,-0.0014676991861302675
4.44,-0.0014581310500460128
4.444,-0.001468372321332175
4.448,-0.0014706321323671497
4.452,-0.0014567607390992728
4.456,-0.0014667616049561822
4.46,-0.0014691416187057834
4.464,-0.0014760412545253342
4.468,-0.0014725313352582457
4.472,-0.0014753440787805016
4.476,-0.0014722668892860678
4.48,-0.0014698868755364666
4.484,-0.0014776279303584015
4.488,-0.0014784453088178605
4.492,-0.0014764018626692132
4.496,-0.0014745747814068932
4.5,-0.0014809455252820878
4.5040000000000004,-0.001490898310053147
4.508,-0.0014847198905213544
4.5120000000000005,-0.0014791905656485436
4.516,-0.0014648143209792359
4.5200000000000005,-0.0014611841989975213
4.524,-0.001459333077192276
4.5280000000000005,-0.001470848497253477
4.532,-0.0014633959289466454
4.5360000000000005,-0.0014391149805921292
4.54,-0.001458155090588938
4.5440000000000005,-0.0014776519709013267
4.548,-0.0014704157674808223
4.5520000000000005,-0.0014629151180881401
4.556,-0.0014701513215086444
4.5600000000000005,-0.001466449077898154
4.564,-0.0014534671847185117
4.5680000000000005,-0.0014564001309553937
4.572,-0.0014555587119530096
4.5760000000000005,-0.0014551019416374296
4.58,-0.0014573617526724043
4.5840000000000005,-0.0014614486449696991
4.588,-0.0014571934688719275
4.5920000000000005,-0.0014571453877860769
4.596,-0.00145880418524792
4.6000000000000005,-0.0014631555235173927
4.604,-0.0014541643604633443
4.6080000000000005,-0.0014394275076501577
4.612,-0.0014448847108941925
4.616,-0.001439090940049204
4.62,-0.0014369272911859304
4.624,-0.0014446202649220146
4.628,-0.0014601504556517348
4.632,-0.00146017449619466
4.636,-0.0014557269957534865
4.64,-0.0014623862261437845
4.644,-0.0014639729019768517
4.648,-0.0014799117819363015
4.652,-0.0014834697822892408
4.656,-0.0014673385779863887
4.66,-0.0014434182377757515
4.664,-0.001443201872889424
4.668,-0.0014630353208027664
4.672,-0.001466833726584958
4.676,-0.0014586839825332938
4.68,-0.0014433220756040503
4.684,-0.0014296910877654259
4.688,-0.0014440673324347334
4.692,-0.0014588282257908453
4.696,-0.0014677713077590434
4.7,-0.001456424171498319
4.704,-0.001460246617823436
4.708,-0.0014611361179116707
4.712,-0.0014501255492519
4.716,-0.001437816791274165
4.72,-0.0014395957914506345
4.724,-0.0014539960766628674
4.728,-0.0014665692806127802
4.732,-0.0014497889816509463
4.736,-0.0014519045494283695
4.74,-0.0014509910087972095
4.744,-0.001444283697321061
4.748,-0.0014631314829744676
4.752,-0.0014812820928830415
4.756,-0.001483950593147746
4.76,-0.001465006645322638
4.764,-0.001454861536208177
4.768,-0.001458876306876696
4.772,-0.001465559577809919
4.776,-0.0014683482807892497
4.78,-0.0014701513215086444
4.784,-0.0014684925240468012
4.788,-0.0014637565370905243
4.792,-0.001471834159513413
4.796,-0.0014620496585428307
4.8,-0.0014507746439108822
4.804,-0.0014482263463608043
4.808,-0.001457794482445059
4.812,-0.0014717379973417121
4.816,-0.0014827485660014825
4.82,-0.0014755123625809783
4.824,-0.0014617611720277276
4.828,-0.001457698320273358
4.832,-0.0014601985367375854
4.836,-0.0014700551593369434
4.84,-0.0014787097547900383
4.844,-0.001477219241128672
4.848,-0.0014854891878949628
4.852,-0.001471473551369534
4.856,-0.0014634920911183464
4.86,-0.0014657999832391718
4.864,-0.0014629631991739907
4.868,-0.0014676751455873422
4.872,-0.0014667616049561822
4.876,-0.0014598379285937066
4.88,-0.0014619294558282044
4.884,-0.0014676991861302675
4.888,-0.001471641835170011
4.892,-0.001478301065560309
4.896,-0.001484407363463326
4.9,-0.0014666654427844812
4.904,-0.001457962766245536
4.908,-0.0014762335788687363
4.912,-0.00148022430899433
4.916,-0.0014818350253703225
4.92,-0.0014822437146000522
4.924,-0.0014695022268496622
4.928,-0.0014704638485666729
4.932,-0.0014758008490960816
4.936,-0.001474935389550772
4.94,-0.0014704638485666729
4.944,-0.0014747190246644447
4.948,-0.001470656172910075
4.952,-0.0014762816599545867
4.956,-0.0014802723900801805
4.96,-0.0014678193888448938
4.964,-0.0014716658757129362
4.968,-0.00148022430899433
4.972,-0.0014782770250173836
4.976,-0.0014765461059267648
4.98,-0.0014649345236938623
4.984,-0.001473853565119135
4.988,-0.0014769788356994195
4.992,-0.001476377822126288
4.996,-0.0014823158362288278
5.0,-0.0014906579046238945
5.0040000000000004,-0.0014841669580340734
5.008,-0.0014734929569752563
5.0120000000000005,-0.0014793828899919458
5.016,-0.0014850324175793828
5.0200000000000005,-0.0014892395125913039
5.024,-0.00148296493088781
5.0280000000000005,-0.0014819311875420237
5.032,-0.0014761614572399604
5.0360000000000005,-0.0014651508885801896
5.04,-0.001466929888756659
5.0440000000000005,-0.0014530104144029317
5.048,-0.0014739978083766869
5.0520000000000005,-0.0015081594198734865
5.056,-0.0015092412443051231
5.0600000000000005,-0.0014817629037415468
5.064,-0.001475752768010231
5.0680000000000005,-0.0014816427010269206
5.072,-0.001490970431681923
5.0760000000000005,-0.0014912108371111755
5.08,-0.0014884942557606207
5.0840000000000005,-0.0014882057692455176
5.088,-0.0014868354582987776
5.0920000000000005,-0.0014812580523401162
5.096,-0.001480584917138209
5.1000000000000005,-0.0014836140255467924
5.104,-0.0014823398767717531
5.1080000000000005,-0.0014867152555841513
5.112,-0.0014760172139824089
5.1160000000000005,-0.0014898164856215102
5.12,-0.0014867392961270766
5.124,-0.0014726996190587225
5.128,-0.0014611120773687454
5.132,-0.0014696464701072138
5.136,-0.0014967882430698366
5.14,-0.0015022694868567967
5.144,-0.0014894077963917807
5.148,-0.0014897684045356598
5.152,-0.0014865229312407491
5.156,-0.0014834457417463155
5.16,-0.0014817869442844721
5.164,-0.0014941197428051324
5.168,-0.0014924128642574387
5.172,-0.0014908261884243714
5.176,-0.0014964516754688829
5.18,-0.0015013559462256367
5.184,-0.0015043850546342197
5.188,-0.0014948890401787409
5.192,-0.0014961631889537797
5.196,-0.0015054668790658566
5.2,-0.0014995048244203914
5.204,-0.001492725391315467
5.208,-0.0014839265526048208
5.212,-0.0014717379973417121
5.216,-0.0014689733349053065
5.22,-0.0015076305279291304
5.224,-0.0015217182860833352
5.228,-0.001502317567942647
5.232,-0.001493903377918805
5.236,-0.001483950593147746
5.24,-0.0014883980935889198
5.244,-0.0014986634054180072
5.248,-0.0014943120671485346
5.252,-0.0014862825258114966
5.256,-0.0014855132284378881
5.26,-0.0014917637695984565
5.264,-0.0014904896208234176
5.268,-0.00148022430899433
5.272,-0.0014771952005857467
5.276,-0.0014777962141588783
5.28,-0.001483061093059511
5.284,-0.0014820754307995753
5.288,-0.0014809214847391625
5.292,-0.0014759450923536332
5.296,-0.0014789020791334405
5.3,-0.0014799117819363015
5.304,-0.0014647181588075349
5.308,-0.001475392159866352
5.312,-0.001495634297009424
5.316,-0.001485320904094486
5.32,-0.0014758970112677826
5.324,-0.0014864508096119734
5.328,-0.0014891193098766776
5.332,-0.0014850324175793828
5.336,-0.0014945043914919365
5.34,-0.0014925090264291398
5.344,-0.001491619526340905
5.348,-0.0014989999730189608
5.352,-0.0015130877311731654
5.356,-0.0015265744757542382
5.36,-0.0015188334209323034
5.364,-0.0014997692703925692
5.368,-0.0014936629724895524
5.372,-0.0014878932421874891
5.376,-0.0014714975919124594
5.38,-0.0014680357537312212
5.384,-0.0014816186604839953
5.388,-0.0014826283632868563
5.392,-0.001479863700850451
5.396,-0.0014675309023297906
5.4,-0.0014811618901684153
5.404,-0.0015060919331819135
5.408,-0.001504409095177145
5.412,-0.0014969805674132388
5.416,-0.001506596784583344
5.42,-0.0015247473944919182
5.424,-0.0015172227045563106
5.428,-0.001516525528811478
5.432,-0.0015001779596222986
5.436,-0.001478950160219291
5.44,-0.0014622179423433076
5.444,-0.001474382457063491
5.448,-0.0014923167020857377
5.452,-0.0015117174202264254
5.456,-0.0015102749876509094
5.46,-0.0015031109058591808
5.464,-0.0015008030137383555
5.468,-0.0015046254600634724
5.472,-0.0015049620276644262
5.476,-0.0015057313250380346
5.48,-0.0014938552968329546
5.484,-0.0015022454463138714
5.488,-0.0014924609453432893
5.492,-0.0014896482018210335
5.496,-0.0014910425533106986
5.5,-0.0014887346611898735
5.5040000000000004,-0.001495177526693844
5.508,-0.0014959468240674525
5.5120000000000005,-0.001483397660660465
5.516,-0.001493182161631047
5.5200000000000005,-0.0015050341492932019
5.524,-0.0015127271230292864
5.5280000000000005,-0.0015155639070944674
5.532,-0.00151808816410162
5.5360000000000005,-0.0015299882328496258
5.54,-0.0015213095968536056
5.5440000000000005,-0.0014954900537518725
5.548,-0.0014985191621604557
5.5520000000000005,-0.001510491352537237
5.556,-0.0014930138778305702
5.5600000000000005,-0.0014900088099649123
5.564,-0.0015077507306437566
5.5680000000000005,-0.0015097220551636285
5.572,-0.0015010674597105336
5.5760000000000005,-0.0015018367570841418
5.58,-0.0015034715140030599
5.5840000000000005,-0.001498471081074605
5.588,-0.0015006106893949535
5.5920000000000005,-0.0015156841098090937
5.596,-0.001523905975489534
5.6000000000000005,-0.0015233290024593278
5.604,-0.0015260455838098826
5.6080000000000005,-0.0015227760699720468
5.612,-0.0015099624605928812
5.6160000000000005,-0.0014927013507725418
5.62,-0.001491883972313083
5.6240000000000006,-0.0015033753518313587
5.628,-0.0015140012718043254
5.632,-0.0015167659342407306
5.636,-0.0015104432714513863
5.64,-0.0015007308921095798
5.644,-0.0014959468240674525
5.648,-0.0015015001894831883
5.652,-0.0015158283530666455
5.656,-0.0015147705691779339
5.66,-0.0015027022166294514
5.664,-0.0015016684732836651
5.668,-0.001502317567942647
5.672,-0.0015040725275761915
5.676,-0.001499745229849644
5.68,-0.001500466446137402
5.684,-0.0015031109058591808
5.688,-0.0014919080128560083
5.692,-0.0014818590659132478
5.696,-0.0015027502977153018
5.7,-0.0015097220551636285
5.704,-0.001513159852801941
5.708,-0.0015213336373965309
5.712,-0.001523905975489534
5.716,-0.00152397809711831
5.72,-0.0015157321908949443
5.724,-0.001509217203762198
5.728,-0.001508399825302739
5.732,-0.001508015176615935
5.736,-0.0015197710021063885
5.74,-0.0015097220551636285
5.744,-0.0015018848381699924
5.748,-0.0015073660819569525
5.752,-0.0015081353793305612
5.756,-0.0015045533384346966
5.76,-0.0015059236493814366
5.764,-0.0014949611618075166
5.768,-0.0015020771625133946
5.772,-0.0015178477586723675
5.776,-0.0015228722321437478
5.78,-0.0015105153930801622
5.784,-0.0015135685420316707
5.788,-0.0015153235016652149
5.792,-0.0015037359599752377
5.796,-0.001500298162336925
5.8,-0.0014994327027916155
5.804,-0.001506596784583344
5.808,-0.001505779406123885
5.812,-0.0014993365406199145
5.816,-0.0015045052573488462
5.82,-0.0015131117717160907
5.824,-0.0015052985952653797
5.828,-0.0015017886759982914
5.832,-0.0015101547849362832
5.836,-0.0015140974339760264
5.84,-0.0015130156095443895
5.844,-0.0015047937438639493
5.848,-0.0015024618112001987
5.852,-0.0015035917167176862
5.856,-0.001502582013914825
5.86,-0.001497461378271744
5.864,-0.0015051543520078281
5.868,-0.0015218144482550362
5.872,-0.0015065246629545682
5.876,-0.0014921484182852608
5.88,-0.0015034234329172093
5.884,-0.0015030868653162555
5.888,-0.0015099865011358063
5.892,-0.0015119337851127526
5.896,-0.0015135204609458201
5.9,-0.0015105153930801622
5.904,-0.0015047937438639493
5.908,-0.0015147465286350086
5.912,-0.0015267908406405657
5.916,-0.0015310700572812625
5.92,-0.0015151792584076633
5.924,-0.0015091210415904969
5.928,-0.0014964516754688829
5.932,-0.001497725824243922
5.936,-0.0015135925825745958
5.94,-0.0015148186502637842
5.944,-0.0014920041750277092
5.948,-0.0014955862159235734
5.952,-0.0014990480541048113
5.956,-0.0014885663773893966
5.96,-0.0014831332146882869
5.964,-0.001488614458475247
5.968,-0.0015035676761747609
5.972,-0.0015024377706572734
5.976,-0.0014861142420110197
5.98,-0.0014856334311525144
5.984,-0.0014861142420110197
5.988,-0.001475848930181932
5.992,-0.0014758248896390067
5.996,-0.0014847920121501303
6.0,-0.0014902972964800155
6.0040000000000004,-0.001485681512238365
6.008,-0.001483589985003867
6.0120000000000005,-0.0014879172827304144
6.016,-0.0014988316892184839
6.0200000000000005,-0.0015025579733718999
6.024,-0.0014977979458726976
6.0280000000000005,-0.0014820754307995753
6.032,-0.0014873403097002082
6.0360000000000005,-0.0015053707168941556
6.04,-0.0015121261094561548
6.0440000000000005,-0.0015133521771453432
6.048,-0.0015111644877391444
6.0520000000000005,-0.0015035917167176862
6.056,-0.0015027983788011524
6.0600000000000005,-0.0015144580421199054
6.064,-0.001508303663131038
6.0680000000000005,-0.0014870277826421797
6.072,-0.001479959863022152
6.0760000000000005,-0.0014754642814951279
6.08,-0.001466905848213734
6.0840000000000005,-0.001467290496900538
6.088,-0.0014758248896390067
6.0920000000000005,-0.0014745507408639679
6.096,-0.001471377389197833
6.1000000000000005,-0.0014935668103178512
6.104,-0.0015101547849362832
6.1080000000000005,-0.0014948890401787409
6.112,-0.0014854891878949628
6.1160000000000005,-0.001488157688159667
6.12,-0.0014959949051533028
6.1240000000000006,-0.001496643999812285
6.128,-0.0014938312562900293
6.132000000000001,-0.0014942880266056093
6.136,-0.0015049620276644262
6.140000000000001,-0.0015085921496461412
6.144,-0.0014989038108472598
6.148,-0.0014891193098766776
6.152,-0.001483950593147746
6.156,-0.0014898164856215102
6.16,-0.0015042648519195934
6.164,-0.001502485851743124
6.168,-0.0014889991071620513
6.172,-0.0014828206876302584
6.176,-0.0014921003371994102
6.18,-0.0014872681880714323
6.184,-0.0014890952693337523
6.188,-0.0015059957710102125
6.192,-0.001504312933005444
6.196,-0.0014974132971858935
6.2,-0.001495369851037246
6.204,-0.0014985912837892313
6.208,-0.0015081113387876359
6.212,-0.0015070775954418494
6.216,-0.0015028705004299283
6.22,-0.001520708583280474
6.224,-0.0015314066248822162
6.228,-0.0015193382723337338
6.232,-0.0015005866488520282
6.236,-0.0014912108371111755
6.24,-0.0014914752830833533
6.244,-0.0014858738365817672
6.248,-0.001492533066972065
6.252,-0.0015070775954418494
6.256,-0.0015034715140030599
6.26,-0.0015090489199617212
6.264,-0.0014989038108472598
6.268,-0.0014963795538401072
6.272,-0.001495730459181125
6.276,-0.0014856334311525144
6.28,-0.001491980134484784
6.284,-0.0014953938915801713
6.288,-0.0015124867176000338
6.292,-0.0015191699885332569
6.296,-0.0015233770835451784
6.3,-0.0015220308131413634
6.304,-0.0014958987429816019
6.308,-0.001485128579751084
6.312,-0.0014833736201175396
6.316,-0.0014872201069855819
6.32,-0.0014972930944712672
6.324,-0.0014986634054180072
6.328,-0.001488518296303546
6.332,-0.0014870037420992544
6.336,-0.0014889269855332754
6.34,-0.0014969084457844629
6.344,-0.0014963795538401072
6.348,-0.001483758268804344
6.352,-0.0014750555922653983
6.356,-0.0014914031614545777
6.36,-0.0014966199592693597
6.364,-0.0014929657967447196
6.368,-0.001501860797627067
6.372,-0.0015040004059474156
6.376,-0.0014925811480579155
6.38,-0.0015066689062121197
6.384,-0.001510851960681116
6.388,-0.001489431836934706
6.392,-0.0014926292291437661
6.396,-0.0014997692703925692
6.4,-0.001492364783171588
6.404,-0.001491811850684307
6.408,-0.0014897684045356598
6.412,-0.0014830851336024363
6.416,-0.0014984951216175304
6.42,-0.0014987114865038576
6.424,-0.001499576946049167
6.428,-0.0015017405949124408
6.432,-0.0014824841200293047
6.436,-0.0014747911462932204
6.44,-0.0014908502289672967
6.444,-0.0014988316892184839
6.448,-0.001491066593853624
6.452,-0.0015004183650515514
6.456,-0.0015047937438639493
6.46,-0.0014945765131207124
6.464,-0.0014965718781835091
6.468,-0.0014928455940300934
6.472,-0.0014932062021739724
6.476,-0.0014902732559370902
6.48,-0.0014945043914919365
6.484,-0.0015011876624251598
6.488,-0.0015012117029680851
6.492,-0.0014942159049768334
6.496,-0.0014866431339553756
6.5,-0.0014849602959506071
6.5040000000000004,-0.0014913310398258018
6.508,-0.0015010674597105336
6.5120000000000005,-0.0015001539190793735
6.516,-0.0014918599317701577
6.5200000000000005,-0.001495826621352826
6.524,-0.0014833255390316893
6.5280000000000005,-0.0014864508096119734
6.532,-0.0014859219176676175
6.5360000000000005,-0.0014893837558488554
6.54,-0.0014847439310642797
6.5440000000000005,-0.0014833736201175396
6.548,-0.0014984229999887545
6.5520000000000005,-0.0015034715140030599
6.556,-0.0015083277036739631
6.5600000000000005,-0.0015017165543695155
6.564,-0.001483229376859988
6.5680000000000005,-0.001492797512944243
6.572,-0.001497100770127865
6.5760000000000005,-0.001504769703321024
6.58,-0.0014940716617192818
6.5840000000000005,-0.0014767143897272414
6.588,-0.0014796473359641237
6.5920000000000005,-0.001475295997694651
6.596,-0.0014808974441962374
6.6000000000000005,-0.0015013319056827114
6.604,-0.0014976777431580713
6.6080000000000005,-0.0014916916479696808
6.612,-0.0014888308233615745
6.6160000000000005,-0.0014994086622486904
6.62,-0.0014976296620722207
6.6240000000000006,-0.0014874364718719091
6.628,-0.0015032311085738071
6.632000000000001,-0.0015045533384346966
6.636,-0.001499192297362363
6.640000000000001,-0.0015033513112884334
6.644,-0.0015086402307319916
6.648000000000001,-0.0015064765818687178
6.652,-0.0014921964993711114
6.656000000000001,-0.0014935908508607765
6.66,-0.0015006106893949535
6.664,-0.0015051543520078281
6.668,-0.0014922205399140365
6.672,-0.0014827966470873331
6.676,-0.0014718822405992637
6.68,-0.0014784693493607858
6.684,-0.0014889029449903504
6.688,-0.0014943361076914597
6.692,-0.001486234444725646
6.696,-0.0014789020791334405
6.7,-0.0014790944034768427
6.704,-0.0014769788356994195
6.708,-0.0014780847006739815
6.712,-0.0014858738365817672
6.716,-0.001487147985356806
6.72,-0.0014873643502431335
6.724,-0.0015011395813393092
6.728,-0.001499384621705765
6.732,-0.0014813301739688921
6.736,-0.0014764259032121383
6.74,-0.0014755844842097542
6.744,-0.001477387524929149
6.748,-0.0014946245942065628
6.752,-0.0014959468240674525
6.756,-0.0014770028762423448
6.76,-0.001480584917138209
6.764,-0.001504312933005444
6.768,-0.0015121261094561548
6.772,-0.0015088806361612443
6.776,-0.0015092652848480484
6.78,-0.0015091691226763475
6.784,-0.0014876528367582366
6.788,-0.001471930321685114
6.792,-0.001468925253819456
6.796,-0.001466929888756659
6.8,-0.0014821235118854257
6.804,-0.0014762335788687363
6.808,-0.0014627708748305886
6.812,-0.0014629391586310654
6.816,-0.0014729881055738257
6.82,-0.00148296493088781
6.824,-0.0014750796328083236
6.828,-0.0014757768085531563
6.832,-0.0014877249583870123
6.836,-0.0014940235806334312
6.84,-0.0014931581210881218
6.844,-0.0014838303904331196
6.848,-0.0014761854977828857
6.852,-0.001480320471166031
6.856,-0.0014918599317701577
6.86,-0.0014825322011151553
6.864,-0.001493254283259823
6.868,-0.0014992644189911388
6.872,-0.001489792445078585
6.876,-0.0014889991071620513
6.88,-0.0014895520396493323
6.884,-0.0014839025120618955
6.888,-0.0014762576194116614
6.892,-0.0014703676863949717
6.896,-0.0014891193098766776
6.9,-0.0014943841887773103
6.904,-0.0014941197428051324
6.908,-0.0014933744859744493
6.912,-0.001495634297009424
6.916,-0.0014983749189029039
6.92,-0.0014947928780070397
6.924,-0.0014882298097884429
6.928,-0.0014898645667073608
6.932,-0.0014821235118854257
6.936,-0.001477219241128672
6.94,-0.001486595052869525
6.944,-0.0014933744859744493
6.948,-0.0014971488512137156
6.952,-0.0014933744859744493
6.956,-0.001493278323802748
6.96,-0.0014949371212645913
6.964,-0.0014946967158353387
6.968,-0.0014871720258997313
6.972,-0.0014724111325436194
6.976,-0.0014756325652956048
6.98,-0.0014985191621604557
6.984,-0.0015142897583194286
6.988,-0.0015049620276644262
6.992,-0.0014951534861509187
6.996,-0.0014960670267820787
7.0,-0.0014989518919331104
7.0040000000000004,-0.0015017405949124408
7.008,-0.0014963795538401072
7.0120000000000005,-0.001502942622058704
7.016,-0.0015044812168059209
7.0200000000000005,-0.0014982306756453523
7.024,-0.001491715688512606
7.0280000000000005,-0.0014979421891302492
7.032,-0.001491162756025325
7.0360000000000005,-0.0014856574716954397
7.04,-0.0014850083770364575
7.0440000000000005,-0.0014831332146882869
7.048,-0.0014838063498901943
7.0520000000000005,-0.0014837823093472693
7.056,-0.0014945765131207124
7.0600000000000005,-0.0015066689062121197
7.064,-0.001496547837640584
7.0680000000000005,-0.0014920041750277092
7.072,-0.0014917397290555314
7.0760000000000005,-0.0015007308921095798
7.08,-0.0015124386365141832
7.0840000000000005,-0.0015154917854656917
7.088,-0.0015077988117296072
7.0920000000000005,-0.0014935187292320008
7.096,-0.0014799117819363015
7.1000000000000005,-0.0014859459582105428
7.104,-0.0014918599317701577
7.1080000000000005,-0.0014984229999887545
7.112,-0.0014940716617192818
7.1160000000000005,-0.001486234444725646
7.12,-0.0014913310398258018
7.1240000000000006,-0.0014919320533989333
7.128,-0.0014873643502431335
7.132000000000001,-0.001489335674763005
7.136,-0.0015027502977153018
7.140000000000001,-0.001506789108926746
7.144,-0.0015005145272232524
7.148000000000001,-0.0014985191621604557
7.152,-0.0014973892566429682
7.156000000000001,-0.0014955381348377228
7.16,-0.0014988316892184839
7.164000000000001,-0.0015020050408846187
7.168,-0.001483950593147746
7.172,-0.0014856334311525144
7.176,-0.001496187229496705
7.18,-0.0014961151078679293
7.184,-0.001487147985356806
7.188,-0.0014869316204704787
7.192,-0.0014904174991946417
7.196,-0.0014958987429816019
7.2,-0.0014961631889537797
7.204,-0.0015016203921978145
7.208,-0.0015130396500873148
7.212,-0.0015167178531548802
7.216,-0.0015015482705690386
7.22,-0.0014883740530459945
7.224,-0.0014978219864156229
7.228,-0.0015043610140912946
7.232,-0.0014961391484108544
7.236,-0.0014883259719601439
7.24,-0.0014856574716954397
7.244,-0.0015027502977153018
7.248,-0.0015085681091032159
7.252,-0.0014897684045356598
7.256,-0.001486595052869525
7.26,-0.0014797194575928993
7.264,-0.0014831812957741373
7.268,-0.0014912348776541008
7.272,-0.0014984470405316798
7.276,-0.0014952977294084703
7.28,-0.001501115540796384
7.284,-0.0015101547849362832
7.288,-0.001506789108926746
7.292,-0.0014944322698631609
7.296,-0.0014847198905213544
7.3,-0.0014899366883361367
7.304,-0.001488878904447425
7.308,-0.0014969084457844629
7.312,-0.001511597217511799
7.316,-0.0015135204609458201
7.32,-0.0014982066351024272
7.324,-0.0014932062021739724
7.328,-0.001495369851037246
7.332,-0.001491883972313083
7.336,-0.0015054668790658566
7.34,-0.0015006347299378786
7.344,-0.0014906579046238945
7.348,-0.0015126309608575854
7.352,-0.0015182804884450222
7.356,-0.0014992644189911388
7.36,-0.0015140493528901758
7.364,-0.0015221029347701393
7.368,-0.001513328136602418
7.372,-0.0015032070680308818
7.376,-0.0014921243777423355
7.38,-0.0014924609453432893
7.384,-0.001502774338258227
7.388,-0.0014968363241556872
7.392,-0.001489335674763005
7.396,-0.0014926532696866914
7.4,-0.0014911867965682502
7.404,-0.001497269053928342
7.408,-0.0014964516754688829
7.412,-0.0014751036733512489
7.416,-0.0014673385779863887
7.42,-0.0014852968635515609
7.424,-0.0014881096070738166
7.428,-0.0014938793373758797
7.432,-0.0014900809315936882
7.436,-0.0014923167020857377
7.44,-0.0014831812957741373
7.444,-0.001482147552428351
7.448,-0.0014858257554959166
7.452,-0.0014920041750277092
7.456,-0.0014983508783599788
7.46,-0.0014887587017327986
7.464,-0.0014878451611016388
7.468,-0.0014899366883361367
7.472,-0.0014972930944712672
7.476,-0.001500658770480804
7.48,-0.001508760433446618
7.484,-0.0015084238658456643
7.488,-0.0015075584063003545
7.492,-0.001496643999812285
7.496,-0.0014931581210881218
7.5,-0.0014858017149529913
7.5040000000000004,-0.001469285861963335
7.508,-0.0014705359701954485
7.5120000000000005,-0.0014825562416580806
7.516,-0.0014861623230968703
7.5200000000000005,-0.0014937831752041787
7.524,-0.001486234444725646
7.5280000000000005,-0.0014979662296731745
7.532,-0.0015142657177765033
7.5360000000000005,-0.001503952324861565
7.54,-0.0014701272809657191
7.5440000000000005,-0.00148159461994107
7.548,-0.0014853930257232618
7.5520000000000005,-0.0014933264048885987
7.556,-0.0015000577569076723
7.5600000000000005,-0.0015005385677661777
7.564,-0.0014968844052415376
7.5680000000000005,-0.0015022214057709461
7.572,-0.0014952496483226197
7.5760000000000005,-0.0014845035256350271
7.58,-0.0014832774579458387
7.5840000000000005,-0.0014746228624927435
7.588,-0.001492797512944243
7.5920000000000005,-0.0014970526890420144
7.596,-0.0014707042539959254
7.6000000000000005,-0.0014809214847391625
7.604,-0.0014879172827304144
7.6080000000000005,-0.0014868594988417029
7.612,-0.0015192421101620328
7.6160000000000005,-0.0015018367570841418
7.62,-0.0014937591346612534
7.6240000000000006,-0.0014835178633750912
7.628,-0.0014764980248409142
7.632000000000001,-0.0014807051198528353
7.636,-0.001485681512238365
7.640000000000001,-0.0014925090264291398
7.644,-0.0014946245942065628
7.648000000000001,-0.0014958506618957513
7.652,-0.00148250816057223
7.656000000000001,-0.0014827245254585572
7.66,-0.0014972930944712672
7.664000000000001,-0.001487604755672386
7.668,-0.001478036619588131
7.672000000000001,-0.0014874845529577597
7.676,-0.0014896482018210335
7.68,-0.0014992163379052882
7.684,-0.0014795271332494974
7.688,-0.0014966199592693597
7.692,-0.0014904896208234176
7.696,-0.0014792386467343942
7.7,-0.0014831091741453616
7.704,-0.0014978219864156229
7.708,-0.001512775204115137
7.712,-0.0014997211893067188
7.716,-0.0014918599317701577
7.72,-0.0014872441475285072
7.724,-0.0014935427697749261
7.728,-0.0014962112700396303
7.732,-0.0014970526890420144
7.736,-0.0014973652161000429
7.74,-0.001491980134484784
7.744,-0.0014864508096119734
7.748,-0.0014849602959506071
7.752,-0.0014802002684514046
7.756,-0.0014856334311525144
7.76,-0.0014938312562900293
7.764,-0.0015007789731954302
7.768,-0.0014995288649633167
7.772,-0.0014998654325642704
7.776,-0.001490609823538044
7.78,-0.0014861863636397956
7.784,-0.0014796954170499743
7.788,-0.0014819071469990984
7.792,-0.0014871960664426566
7.796,-0.0014870758637280303
7.8,-0.001487676877301162
7.804,-0.001495826621352826
7.808,-0.001500298162336925
7.812,-0.0014937591346612534
7.816,-0.001498278756731203
7.82,-0.0014987836081326335
7.824,-0.0015013319056827114
7.828,-0.0014912829587399514
7.832,-0.0014702715242232707
7.836,-0.0014745026597781173
7.84,-0.0014868114177558523
7.844,-0.0014734448758894057
7.848,-0.0014544288064355223
7.852,-0.001468468483503876
7.856,-0.001489600120735183
7.86,-0.0014982547161882776
7.864,-0.0014933023643456734
7.868,-0.0014878692016445638
7.872,-0.0014899607288790617
7.876,-0.0014933264048885987
7.88,-0.0014929417562017946
7.884,-0.0014966199592693597
7.888,-0.0015054428385229313
7.892,-0.0015112125688249948
7.896,-0.001499192297362363
7.9,-0.0014780606601310562
7.904,-0.0014728919434021247
7.908,-0.0014756085247526795
7.912,-0.0014654153345523674
7.916,-0.0014822437146000522
7.92,-0.0015005145272232524
7.924,-0.0014914512425404283
7.928,-0.0014721226460285162
7.932,-0.0014485148328759075
7.936,-0.0014806329982240594
7.94,-0.0015131838933448664
7.944,-0.0014955381348377228
7.948,-0.0014833495795746143
7.952,-0.0014737574029474341
7.956,-0.0014801521873655543
7.96,-0.001488422134131845
7.964,-0.0014939274184617303
7.968,-0.0014868354582987776
7.972,-0.0014793588494490205
7.976,-0.0014764018626692132
7.98,-0.0014873403097002082
7.984,-0.0014940716617192818
7.988,-0.0014868354582987776
7.992,-0.0014724832541723953
7.996,-0.0014733487137177047
8.0,-0.0014797194575928993
8.004,-0.0014866431339553756
8.008000000000001,-0.0014977498647868472
8.012,-0.001482604322743931
8.016,-0.0014712812270261321
8.02,-0.001476858632984793
8.024000000000001,-0.0014722668892860678
8.028,-0.0014820033091707994
8.032,-0.0014922926615428124
8.036,-0.0014801521873655543
8.040000000000001,-0.00147382952457621
8.044,-0.0014878932421874891
8.048,-0.0014941437833480577
8.052,-0.0014954179321230966
8.056000000000001,-0.0014975334999005197
8.06,-0.0014910185127677733
8.064,-0.0014926532696866914
8.068,-0.001493903377918805
8.072000000000001,-0.001494720756378264
8.076,-0.001488975066619126
8.08,-0.0014807532009386858
8.084,-0.0014849602959506071
8.088000000000001,-0.0015002260407081492
8.092,-0.001498471081074605
8.096,-0.0014774356060149995
8.1,-0.0014704157674808223
8.104000000000001,-0.0014748632679219963
8.108,-0.00147839722773201
8.112,-0.0014771952005857467
8.116,-0.0014783731871890846
8.120000000000001,-0.001466929888756659
8.124,-0.001475848930181932
8.128,-0.0014890952693337523
8.132,-0.001485152620294009
8.136000000000001,-0.0014836380660897177
8.14,-0.0014792626872773193
8.144,-0.0014792386467343942
8.148,-0.0014781808628456827
8.152000000000001,-0.0014776279303584015
8.156,-0.00148022430899433
8.16,-0.0014837101877184934
8.164,-0.0014824841200293047
8.168000000000001,-0.0014745507408639679
8.172,-0.0014686127267614275
8.176,-0.0014756325652956048
8.18,-0.001474310335434715
8.184000000000001,-0.0014729400244879753
8.188,-0.0014859219176676175
8.192,-0.0014974854188146691
8.196,-0.0015035917167176862
8.2,-0.0014878451611016388
8.204,-0.0014934225670602997
8.208,-0.0015048418249497997
8.212,-0.0015114289337113222
8.216,-0.0015171265423846096
8.22,-0.0014996250271350176
8.224,-0.0014658480643250224
8.228,-0.0014571213472431518
8.232,-0.0014695262673925875
8.236,-0.00146108803682582
8.24,-0.0014586359014474434
8.244,-0.0014822437146000522
8.248,-0.0014952977294084703
8.252,-0.0014779404574164299
8.256,-0.001481955228084949
8.26,-0.0014945284320348618
8.264,-0.0014978941080443988
8.268,-0.0014952977294084703
8.272,-0.0014879172827304144
8.276,-0.001491883972313083
8.28,-0.0014852007013798597
8.284,-0.001478301065560309
8.288,-0.0014809455252820878
8.292,-0.0014834457417463155
8.296,-0.0014817629037415468
8.3,-0.001480584917138209
8.304,-0.0014762335788687363
8.308,-0.0014701753620515697
8.312,-0.0014754402409522026
8.316,-0.0014854891878949628
8.32,-0.0014893837558488554
8.324,-0.001493254283259823
8.328,-0.001505226473636604
8.332,-0.001493446607603225
8.336,-0.0014723390109148437
8.34,-0.0015023416084855724
8.344,-0.0015138089474609233
8.348,-0.0014937831752041787
8.352,-0.001492268620999887
8.356,-0.0014864267690690481
8.36,-0.0014896722423639586
8.364,-0.0014885663773893966
8.368,-0.0014833255390316893
8.372,-0.0014797194575928993
8.376,-0.0014814503766835184
8.38,-0.001479671376507049
8.384,-0.0014873403097002082
8.388,-0.0014918599317701577
8.392,-0.0014897684045356598
8.396,-0.0014886384990181723
8.4,-0.0014944563104060862
8.404,-0.0014890952693337523
8.408,-0.0015132560149736423
8.412,-0.0015188574614752284
8.416,-0.0015086402307319916
8.42,-0.0015089287172470947
8.424,-0.001483589985003867
8.428,-0.001470920618882253
8.432,-0.001490609823538044
8.436,-0.0015005385677661777
8.44,-0.0014992644189911388
8.444,-0.0015006347299378786
8.448,-0.001505394757437081
8.452,-0.0015046014195205471
8.456,-0.001501115540796384
8.46,-0.0014891673909625282
8.464,-0.0014880855665308913
8.468,-0.0014940476211763565
8.472,-0.0014912829587399514
8.476,-0.0014968603646986125
8.48,-0.0014932302427168977
8.484,-0.0014847920121501303
8.488,-0.0014889510260762007
8.492,-0.0014926051886008408
8.496,-0.0014886625395610976
8.5,-0.0015111644877391444
8.504,-0.001511861663483977
8.508000000000001,-0.0014975815809863703
8.512,-0.0014833495795746143
8.516,-0.0014808253225674615
8.52,-0.0014772673222145226
8.524000000000001,-0.0014805608765952837
8.528,-0.0014807051198528353
8.532,-0.0014708725377964023
8.536,-0.0014687810105619044
8.540000000000001,-0.0014884461746747703
8.544,-0.0014781568223027574
8.548,-0.0014782770250173836
8.552,-0.0014942880266056093
8.556000000000001,-0.0014862584852685713
8.56,-0.001485681512238365
8.564,-0.0014845275661779524
8.568,-0.0014830130119736606
8.572000000000001,-0.0014997933109354945
8.576,-0.00150849598747444
8.58,-0.001491523364169204
8.584,-0.0014821235118854257
8.588000000000001,-0.0014892395125913039
8.592,-0.0014881096070738166
8.596,-0.0014764739842979889
8.6,-0.0014758008490960816
8.604000000000001,-0.0014918358912272324
8.608,-0.0014863546474402722
8.612,-0.0014812580523401162
8.616,-0.0014800319846509278
8.620000000000001,-0.001480584917138209
8.624,-0.001484671809435504
8.628,-0.0014892875936771545
8.632,-0.0014842390796628493
8.636000000000001,-0.0014708244567105517
8.64,-0.0014727236596016478
8.644,-0.0014852728230086356
8.648,-0.0014818350253703225
8.652000000000001,-0.0014677713077590434
8.656,-0.001480056025193853
8.66,-0.0014984229999887545
8.664,-0.0014897203234498092
8.668000000000001,-0.0014696224295642885
8.672,-0.0014755844842097542
8.676,-0.001482147552428351
8.68,-0.0014803685522518815
8.684000000000001,-0.0014751036733512489
8.688,-0.0014766182275555405
8.692,-0.0014770749978711205
8.696,-0.0014754162004092773
8.700000000000001,-0.0014760652950682595
8.704,-0.0014825322011151553
8.708,-0.0014897443639927345
8.712,-0.0014853449446374112
8.716,-0.0014756566058385298
8.72,-0.001467002010385435
8.724,-0.0014654153345523674
8.728,-0.001475392159866352
8.732,-0.0014675309023297906
8.736,-0.0014615207665984748
8.74,-0.0014580348878743118
8.744,-0.0014678915104736697
8.748,-0.0014769547951564942
8.752,-0.0014871239448138807
8.756,-0.0014942880266056093
8.76,-0.0014891673909625282
8.764,-0.0014874845529577597
8.768,-0.0014827726065444078
8.772,-0.0014761614572399604
8.776,-0.0014793348089060952
8.78,-0.0014865710123265997
8.784,-0.001494720756378264
8.788,-0.0014975334999005197
8.792,-0.0015026541355436008
8.796,-0.0014955621753806481
8.8,-0.0014862825258114966
8.804,-0.0014820273497137247
8.808,-0.0014733967948035553
8.812,-0.0014750796328083236
8.816,-0.0014799839035650774
8.82,-0.0014701272809657191
8.824,-0.0014644777533782823
8.828,-0.0014668096860420328
8.832,-0.0014729881055738257
8.836,-0.0014817148226556962
8.84,-0.0014745267003210426
8.844,-0.0014714975919124594
8.848,-0.00147200244331389
8.852,-0.0014856334311525144
8.856,-0.0014959708646103775
8.86,-0.0014930859994593461
8.864,-0.0014802964306231058
8.868,-0.0014726996190587225
8.872,-0.0014731804299172278
8.876,-0.001477315403300373
8.88,-0.0014773634843862236
8.884,-0.0014755364031239036
8.888,-0.0014733967948035553
8.892,-0.0014690694970770075
8.896,-0.0014765220653838395
8.9,-0.001477123078956971
8.904,-0.0014755364031239036
8.908,-0.0014824600794863794
8.912,-0.0014830130119736606
8.916,-0.0014731323488313772
8.92,-0.0014877730394728629
8.924,-0.0014970526890420144
8.928,-0.0014970767295849397
8.932,-0.0014977498647868472
8.936,-0.0014947688374641144
8.94,-0.0014932062021739724
8.944,-0.0014871960664426566
8.948,-0.001465078766951414
8.952,-0.0014544768875213727
8.956,-0.0014533469820038854
8.96,-0.0014595013609927528
8.964,-0.0014643575506636558
8.968,-0.0014653912940094424
8.972,-0.0014637565370905243
8.976,-0.0014765941870126152
8.98,-0.0014960670267820787
8.984,-0.0014930138778305702
8.988,-0.0014883019314172188
8.992,-0.0014887827422757239
8.996,-0.001494360148234385
9.0,-0.0014780606601310562
9.004,-0.0014609678341111938
9.008000000000001,-0.0014643575506636558
9.012,-0.0014652951318377412
9.016,-0.0014700551593369434
9.02,-0.001478950160219291
9.024000000000001,-0.0014772432816715973
9.028,-0.0014643575506636558
9.032,-0.0014564001309553937
9.036,-0.0014800319846509278
9.040000000000001,-0.0014882538503313682
9.044,-0.0014901049721366135
9.048,-0.0014877730394728629
9.052,-0.0014851766608369344
9.056000000000001,-0.001486042120382244
9.06,-0.0014888548639044998
9.064,-0.0014887587017327986
9.068,-0.001486234444725646
9.072000000000001,-0.0014827966470873331
9.076,-0.001490056891050763
9.08,-0.001490441539737567
9.084,-0.0014734208353464804
9.088000000000001,-0.0014444279405786125
9.092,-0.001453130617117558
9.096,-0.0014768826735277183
9.1,-0.0014761374166970351
9.104000000000001,-0.0014764980248409142
9.108,-0.001480777241481611
9.112,-0.0014802964306231058
9.116,-0.0014691175781628581
9.120000000000001,-0.001481522498312294
9.124,-0.001497725824243922
9.128,-0.0014987114865038576
9.132,-0.001488614458475247
9.136000000000001,-0.001483758268804344
9.14,-0.0014874124313289838
9.144,-0.0014868114177558523
9.148,-0.0014845756472638028
9.152000000000001,-0.0014889510260762007
9.156,-0.0014904896208234176
9.16,-0.0014929417562017946
9.164,-0.001480777241481611
9.168000000000001,-0.001467290496900538
9.172,-0.0014668096860420328
9.176,-0.0014839265526048208
9.18,-0.0014823879578576037
9.184000000000001,-0.0014845516067208775
9.188,-0.0014847920121501303
9.192,-0.0014834938228321661
9.196,-0.0014852007013798597
9.200000000000001,-0.0014892395125913039
9.204,-0.0014807051198528353
9.208,-0.001480056025193853
9.212,-0.001478204903388608
9.216000000000001,-0.0014736131596898825
9.22,-0.0014701032404227938
9.224,-0.001461160158454596
9.228,-0.0014777240925301026
9.232,-0.0014891673909625282
9.236,-0.0014776279303584015
9.24,-0.0014779404574164299
9.244,-0.0014754162004092773
9.248,-0.001466376956269378
9.252,-0.0014646460371787592
9.256,-0.0014668096860420328
9.26,-0.0014717139567987868
9.264,-0.0014689973754482318
9.268,-0.001470848497253477
9.272,-0.0014782770250173836
9.276,-0.0014829408903448847
9.28,-0.0014831332146882869
9.284,-0.0014831572552312122
9.288,-0.001478589552075412
9.292,-0.001483950593147746
9.296,-0.0014828206876302584
9.3,-0.001481426336140593
9.304,-0.001477748133073028
9.308,-0.0014646460371787592
9.312,-0.00147839722773201
9.316,-0.0014934946886890755
9.32,-0.0014693339430491854
9.324,-0.0014704398080237476
9.328,-0.0014791184440197678
9.332,-0.0014826283632868563
9.336,-0.0014835419039180165
9.34,-0.0014751517544370994
9.344,-0.0014682761591604738
9.348,-0.0014679636321024453
9.352,-0.0014652470507518908
9.356,-0.0014655114967240686
9.36,-0.0014681559564458475
9.364,-0.0014704398080237476
9.368,-0.0014726274974299468
9.372,-0.0014720745649426656
9.376,-0.001466449077898154
9.38,-0.0014586839825332938
9.384,-0.0014543807253496717
9.388,-0.0014675789834156412
9.392,-0.001497461378271744
9.396,-0.0015154677449227664
9.4,-0.0014924128642574387
9.404,-0.0014552702254379065
9.408,-0.0014330086826891122
9.412,-0.0014434663188616019
9.416,-0.0014656076588957696
9.42,-0.0014722428487431425
9.424,-0.0014731804299172278
9.428,-0.0014691656592487085
9.432,-0.0014624583477725601
9.436,-0.0014624823883154854
9.44,-0.001459164793391799
9.444,-0.0014602706583663613
9.448,-0.0014628910775452148
9.452,-0.0014677713077590434
9.456,-0.0014668577671278834
9.46,-0.0014620977396286813
9.464,-0.0014645258344641327
9.468,-0.001471641835170011
9.472,-0.0014705600107383738
9.476,-0.0014428893458313956
9.48,-0.0014293785607073974
9.484,-0.0014624583477725601
9.488,-0.0014730361866596763
9.492,-0.0014615688476843254
9.496,-0.0014583954960181906
9.5,-0.0014610159151970444
9.504,-0.0014625064288584107
9.508000000000001,-0.0014608716719394928
9.512,-0.0014590205501342475
9.516,-0.0014577464013592085
9.52,-0.0014738776056620604
9.524000000000001,-0.0014693579835921107
9.528,-0.0014681799969887728
9.532,-0.001477844295244729
9.536,-0.0014802002684514046
9.540000000000001,-0.0014715697135412353
9.544,-0.0014636844154617486
9.548,-0.001462987239716916
9.552,-0.0014518324277995938
9.556000000000001,-0.0014443798594927619
9.56,-0.001435989710011845
9.564,-0.0014377687101883145
9.568,-0.0014582272122177138
9.572000000000001,-0.0014694060646779613
9.576,-0.0014594773204498275
9.58,-0.0014554385092383833
9.584,-0.0014528661711453801
9.588000000000001,-0.0014526978873449033
9.592,-0.0014544768875213727
9.596,-0.0014608476313965676
9.6,-0.00145149586019864
9.604000000000001,-0.001452577684630277
9.608,-0.0014629631991739907
9.612,-0.0014509429277113591
9.616,-0.0014457020893536513
9.620000000000001,-0.0014675789834156412
9.624,-0.0014513516169410885
9.628,-0.0014390668995062788
9.632,-0.0014473128057296443
9.636000000000001,-0.0014523853602868748
9.64,-0.0014507265628250316
9.644,-0.00144921200862074
9.648,-0.0014549096172940274
9.652000000000001,-0.001454597090235999
9.656,-0.0014536595090619139
9.66,-0.0014457020893536513
9.664,-0.001438826494077026
9.668000000000001,-0.0014642373479490296
9.672,-0.0014819311875420237
9.676,-0.001470680213453
9.68,-0.0014694541457638119
9.684000000000001,-0.0014922205399140365
9.688,-0.0014861142420110197
9.692,-0.0014557269957534865
9.696,-0.0014326961556310838
9.700000000000001,-0.0014243781277789426
9.704,-0.001431542209570671
9.708,-0.0014374321425873607
9.712,-0.0014366388046708272
9.716000000000001,-0.0014414709537988052
9.72,-0.0014466877516135874
9.724,-0.0014463031029267833
9.728,-0.0014451010757805197
9.732,-0.0014488994815627116
9.736,-0.0014433701566899009
9.74,-0.0014429614674601715
9.744,-0.0014532027387463339
9.748,-0.0014553423470666821
9.752,-0.0014388024535341008
9.756,-0.0014316383717423722
9.76,-0.001438273561589745
9.764,-0.0014568328607280486
9.768,-0.0014493562518782916
9.772,-0.0014438028864625556
9.776,-0.0014407737780539724
9.78,-0.0014533469820038854
9.784,-0.001458876306876696
9.788,-0.0014485869545046832
9.792,-0.0014443558189498366
9.796,-0.0014426970214879934
9.8,-0.001442841264745545
9.804,-0.0014438750080913315
9.808,-0.0014479859409315516
9.812,-0.0014540681982916433
9.816,-0.0014542364820921202
9.82,-0.0014545490091501486
9.824,-0.0014477695760452243
9.828,-0.0014485148328759075
9.832,-0.0014495004951358432
9.836,-0.0014448366298083419
9.84,-0.0014445481432932387
9.844,-0.0014297872499371268
9.848,-0.0014352444531811619
9.852,-0.0014507746439108822
9.856,-0.0014454616839243988
9.86,-0.0014420960079148618
9.864,-0.0014422402511724134
9.868,-0.0014476253327876728
9.872,-0.0014573617526724043
9.876,-0.001458058928417237
9.88,-0.0014499572654514232
9.884,-0.0014403891293671683
9.888,-0.0014464233056414096
9.892,-0.001455029820008654
9.896,-0.001447360886815495
9.9,-0.001439812156336962
9.904,-0.0014519766710571454
9.908,-0.0014567366985563475
9.912,-0.001448659076133459
9.916,-0.0014397881157940367
9.92,-0.0014325999934593826
9.924,-0.0014297391688512762
9.928,-0.0014307488716541375
9.932,-0.0014364224397844997
9.936,-0.001449740900565096
9.94,-0.0014438509675484062
9.944,-0.001431061398712166
9.948,-0.0014377687101883145
9.952,-0.0014447645081795662
9.956,-0.0014443077378639862
9.96,-0.0014442596567781356
9.964,-0.0014392111427638304
9.968,-0.0014438509675484062
9.972,-0.0014551740632662055
9.976,-0.0014527459684307539
9.98,-0.0014395717509077092
9.984,-0.0014406295347964208
9.988,-0.0014333452502900657
9.992,-0.0014287535065913405
9.996,-0.0014415671159705061
10.0,-0.0014362060748981725
10.004,-0.0014443317784069115
10.008000000000001,-0.001441206507826627
10.012,-0.0014237530736628857
10.016,-0.0014332010070325142
10.02,-0.0014448847108941925
10.024000000000001,-0.0014419277241143852
10.028,-0.0014443317784069115
10.032,-0.0014448847108941925
10.036,-0.0014365907235849766
10.040000000000001,-0.0014362781965269482
10.044,-0.0014378889129029408
10.048,-0.0014416151970563567
10.052,-0.0014420479268290114
10.056000000000001,-0.001439355386021382
10.06,-0.001434162628749525
10.064,-0.0014368792101000798
10.068,-0.0014288737093059668
10.072000000000001,-0.0014235847898624089
10.076,-0.0014326721150881585
10.08,-0.0014367590073854535
10.084,-0.0014447645081795662
10.088000000000001,-0.0014468800759569896
10.092,-0.0014400766023091398
10.096,-0.0014401727644808408
10.1,-0.0014399323590515883
10.104000000000001,-0.0014401006428520651
10.108,-0.0014394275076501577
10.112,-0.0014343549530929272
10.116,-0.0014300036148234543
10.120000000000001,-0.001440196805023766
10.124,-0.0014439230891771819
10.128,-0.0014402208455666914
10.132,-0.0014356531424108913
10.136000000000001,-0.0014220942762010426
10.14,-0.0014295708850507996
10.144,-0.001456424171498319
10.148,-0.0014418796430285346
10.152000000000001,-0.001435701223496742
10.156,-0.0014351963720953113
10.16,-0.0014447645081795662
10.164,-0.0014399323590515883
10.168000000000001,-0.0014408458996827483
10.172,-0.0014378408318170904
10.176,-0.00142870542550549
10.18,-0.0014293304796215468
10.184000000000001,-0.001428609263333789
10.188,-0.0014272149118441236
10.192,-0.0014273831956446005
10.196,-0.0014275755199880027
10.200000000000001,-0.0014336818178910195
10.204,-0.0014333452502900657
10.208,-0.0014306767500253616
10.212,-0.0014274312767304511
10.216000000000001,-0.00142505126298085
10.22,-0.001419930627337769
10.224,-0.0014492600897065906
10.228,-0.001443298035061125
10.232000000000001,-0.0014282967362757605
10.236,-0.0014382976021326704
10.24,-0.0014343789936358525
10.244,-0.0014225270059736973
10.248,-0.0014366868857566776
10.252,-0.0014487792788480853
10.256,-0.0014521449548576223
10.26,-0.0014475291706159716
10.264,-0.0014382495210468198
10.268,-0.00143007573645223
10.272,-0.0014279361281318815
10.276,-0.001428609263333789
10.28,-0.0014281765335611343
10.284,-0.001427984209217732
10.288,-0.001429066033649369
10.292,-0.0014307488716541375
10.296,-0.0014327442367169342
10.3,-0.0014138964510635279
10.304,-0.0014181275866183742
10.308,-0.0014290179525635184
10.312,-0.0014273591551016752
10.316,-0.0014323836285730553
10.32,-0.0014168053567574848
10.324,-0.0014070689368727528
10.328,-0.0014215653842566869
10.332,-0.0014213730599132847
10.336,-0.0014172380865301395
10.34,-0.0014245464115794195
10.344,-0.00142870542550549
10.348,-0.0014369513317288557
10.352,-0.0014342828314641513
10.356,-0.0014329606016032616
10.36,-0.0014151225187527163
10.364,-0.0013965872601573379
10.368,-0.001383004353404564
10.372,-0.0014097133965945321
10.376,-0.0014472647246437937
10.38,-0.0014404852915388692
10.384,-0.0014314700879418953
10.388,-0.0014200508300523953
10.392,-0.0014242098439784657
10.396,-0.0014396679130794104
10.4,-0.0014391871022209051
10.404,-0.0014358695072972188
10.408,-0.001426974506414871
10.412,-0.0014199546678806943
10.416,-0.00141957001919389
10.42,-0.001410266329081813
10.424,-0.0014157716134116983
10.428,-0.0014223587221732206
10.432,-0.0014273110740158248
10.436,-0.0014262532901271132
10.44,-0.0014182958704188511
10.444,-0.0014061073151557424
10.448,-0.0013956977600691031
10.452,-0.0013939908815214094
10.456,-0.0014063717611279202
10.46,-0.001419401735393413
10.464,-0.0014179112217320468
10.468,-0.0014165889918711573
10.472,-0.00142048355982505
10.476,-0.0014286813849625647
10.48,-0.0014284890606191627
10.484,-0.0014140647348640047
10.488,-0.0014084392478194928
10.492,-0.001402429112088177
10.496,-0.0014116125994856278
10.5,-0.0014238251952916616
10.504,-0.0014285852227908637
10.508000000000001,-0.001425700357639832
10.512,-0.0014241136818067648
10.516,-0.0014284650200762374
10.52,-0.0014136800861772004
10.524000000000001,-0.0014047850852948528
10.528,-0.0014084152072765675
10.532,-0.0014086796532487454
10.536,-0.001401611733628718
10.540000000000001,-0.0014089440992209234
10.544,-0.0014275514794450774
10.548,-0.0014270466280436468
10.552,-0.0014156754512399973
10.556000000000001,-0.0014004097064824548
10.56,-0.0014073814639307812
10.564,-0.0014259407630690848
10.568,-0.0014330086826891122
10.572000000000001,-0.0014281765335611343
10.576,-0.0014230558979180532
10.58,-0.0014270225875007217
10.584,-0.001428152493018209
10.588000000000001,-0.0014237049925770353
10.592,-0.0014316383717423722
10.596,-0.0014217336680571637
10.6,-0.0014093768289935784
10.604000000000001,-0.0014111317886271225
10.608,-0.0014058669097264896
10.612,-0.0014110356264554215
10.616,-0.0014291862363639953
10.620000000000001,-0.0014218779113147153
10.624,-0.0014094008695365037
10.628,-0.0014033907338051876
10.632,-0.0014104826939681406
10.636000000000001,-0.0014109394642837206
10.64,-0.001416925559472111
10.644,-0.0014270466280436468
10.648,-0.0014262532901271132
10.652000000000001,-0.0014282967362757605
10.656,-0.0014287775471342658
10.66,-0.00141682939730041
10.664,-0.0014147138295229867
10.668000000000001,-0.001422935695203427
10.672,-0.001425147425152551
10.676,-0.0014207720463401531
10.68,-0.0014163005053560542
10.684000000000001,-0.0014124780590309373
10.688,-0.0014025733553457286
10.692,-0.001381081109970543
10.696,-0.0013657913246700752
10.700000000000001,-0.0014017800174291948
10.704,-0.0014270225875007217
10.708,-0.0014199546678806943
10.712,-0.0014174063703306164
10.716000000000001,-0.0014182718298759258
10.72,-0.0014245704521223448
10.724,-0.0014215413437137616
10.728,-0.0014142089781215563
10.732000000000001,-0.0014185362758481037
10.736,-0.0014271908713011983
10.74,-0.0014300997769951553
10.744,-0.0014263013712129636
10.748000000000001,-0.0014181275866183742
10.752,-0.0014154831268965952
10.756,-0.0014154831268965952
10.76,-0.0014049052880094792
10.764,-0.0013969478683012167
10.768,-0.0014046168014943759
10.772,-0.0013980056521899285
10.776,-0.0014065640854713222
10.78,-0.0014276476416167784
10.784,-0.0014174544514164668
10.788,-0.0014145215051795848
10.792,-0.0014296670472225006
10.796,-0.0014239213574633626
10.8,-0.0014217817491430141
10.804,-0.0014216134653425375
10.808,-0.0014224548843449216
10.812,-0.0014117568427431794
10.816,-0.0014050976123528812
10.82,-0.0014131511942328447
10.824,-0.0014074295450166318
10.828,-0.0014118289643719553
10.832,-0.0014070448963298275
10.836,-0.0014074055044737065
10.84,-0.0014077901531605107
10.844,-0.0014095451127940552
10.848,-0.0013998327334522485
10.852,-0.0013924282462312672
10.856,-0.001404977409638255
10.86,-0.0014143291808361826
10.864,-0.0014097855182233078
10.868,-0.0014063717611279202
10.872,-0.001408270964019016
10.876,-0.0014043042744363477
10.88,-0.0013928850165468472
10.884,-0.0013998086929093232
10.888,-0.0014115164373139269
10.892,-0.0014089200586779981
10.896,-0.0014103865317964394
10.9,-0.0014192094110500111
10.904,-0.0014101942074530374
10.908,-0.001403895585206618
10.912,-0.0013905530838830968
10.916,-0.0013899280297670399
10.92,-0.0013975488818743485
10.924,-0.0013982700981621065
10.928,-0.0014076939909888097
10.932,-0.0014120453292582825
10.936,-0.0014005299091970813
10.94,-0.0014014915309140917
10.944,-0.0013982700981621065
10.948,-0.0014032705310905612
10.952,-0.0014081507613043897
10.956,-0.0014039917473783192
10.96,-0.001407357423387856
10.964,-0.0014106990588544678
10.968,-0.0014198104246231427
10.972,-0.0014280322903035827
10.976,-0.0014222625600015194
10.98,-0.0014115404778568522
10.984,-0.0014261090468695617
10.988,-0.0014232963033473057
10.992,-0.0014197623435372921
10.996,-0.0014132473564045457
11.0,-0.001398774949563537
11.004,-0.0013881249890476451
11.008000000000001,-0.0013971882737304697
11.012,-0.001404063869007095
11.016,-0.0014097133965945321
11.02,-0.0014121655319729088
11.024000000000001,-0.001409184504650176
11.028,-0.0014114683562280763
11.032,-0.0014040398284641696
11.036,-0.001398318179247957
11.040000000000001,-0.0013950967464959716
11.044,-0.001387836502532542
11.048,-0.0013670895139880396
11.052,-0.001384086177836201
11.056000000000001,-0.0014336096962622438
11.06,-0.0014334173719188416
11.064,-0.0014206037625396763
11.068,-0.0014118530049148804
11.072000000000001,-0.001401611733628718
11.076,-0.0013979816116470034
11.08,-0.0013935581517487547
11.084,-0.0013941110842360356
11.088000000000001,-0.001401587693085793
11.092,-0.0014006981929975582
11.096,-0.001404424477150974
11.1,-0.001409352788450653
11.104000000000001,-0.0014149061538663889
11.108,-0.0014167572756716342
11.112,-0.0014147619106088373
11.116,-0.0014032224500047108
11.120000000000001,-0.0013897116648807124
11.124,-0.0013808166639983652
11.128,-0.001380095447710607
11.132,-0.0014142570592074067
11.136000000000001,-0.001415194640381492
11.14,-0.0013917070299435093
11.144,-0.0013902405568250683
11.148,-0.001405338017782134
11.152000000000001,-0.0014072372206732297
11.156,-0.0014076939909888097
11.16,-0.0014034628554339633
11.164,-0.001395962206041281
11.168000000000001,-0.001393053300347324
11.172,-0.0013965391790714873
11.176,-0.0014052178150675075
11.18,-0.001408270964019016
11.184000000000001,-0.001403510936519814
11.188,-0.001389302975650983
11.192,-0.0013856007320404925
11.196,-0.001389831867595339
11.200000000000001,-0.0013847833535810335
11.204,-0.001388846205335403
11.208,-0.0013989913144498644
11.212,-0.0013866825564721294
11.216000000000001,-0.0013909136920269756
11.22,-0.0014075016666454075
11.224,-0.0014192815326787868
11.228,-0.001398125854904555
11.232000000000001,-0.0013937264355492315
11.236,-0.0014168053567574848
11.24,-0.0014154590863536699
11.244,-0.0014069487341581265
11.248000000000001,-0.001402332949916476
11.252,-0.0013903607595396946
11.256,-0.0013872595295023357
11.26,-0.0013909617731128262
11.264,-0.001397861408932377
11.268,-0.0014025493148028033
11.272,-0.001396971908844142
11.276,-0.0013908415703982
11.28,-0.0013918512732010609
11.284,-0.0013937264355492315
11.288,-0.0013890385296788051
11.292,-0.0013842304210937525
11.296,-0.0014055543826684612
11.3,-0.0014129348293465173
11.304,-0.001401058801141437
11.308,-0.0013950005843242704
11.312,-0.0014078622747892866
11.316,-0.0014347396017797313
11.32,-0.0014260850063266364
11.324,-0.0013982460576191813
11.328,-0.0013868748808155314
11.332,-0.0013931494625190252
11.336,-0.0014033666932622623
11.34,-0.0014151225187527163
11.344,-0.0014016838552574939
11.348,-0.0013996404091088466
11.352,-0.0014001212199673517
11.356,-0.0013968276655865904
11.36,-0.0013924282462312672
11.364,-0.0013961304898417579
11.368,-0.0014049533690953296
11.372,-0.0014087036937916707
11.376,-0.0014081267207614644
11.38,-0.001404256193350497
11.384,-0.001417839100103271
11.388,-0.0014196902219085162
11.392,-0.001430436344596109
11.396,-0.0014207480057972278
11.4,-0.0014116366400285531
11.404,-0.0014119972481724322
11.408,-0.0014058428691835643
11.412,-0.0014043763960651233
11.416,-0.0013897837865094883
11.42,-0.0013596369456812076
11.424,-0.0013911781379991536
11.428,-0.0014037273014061412
11.432,-0.0014031743689188602
11.436,-0.001403054166204234
11.44,-0.0013978133278465265
11.444,-0.0013943034085794378
11.448,-0.001396058368212982
11.452,-0.0013895674216231608
11.456,-0.0014040157879212443
11.46,-0.0014287535065913405
11.464,-0.0014333933313759163
11.468,-0.0014113000724275994
11.472,-0.0014103144101676637
11.476,-0.001382908191232863
11.48,-0.0013577137022471866
11.484,-0.001381177272142244
11.488,-0.0014150503971239404
11.492,-0.001418848802906132
11.496,-0.0014132473564045457
11.5,-0.001406900653072276
11.504,-0.0013994000036795938
11.508000000000001,-0.0013962747330993094
11.512,-0.0014036792203202908
11.516,-0.0014102182479959625
11.52,-0.0014171419243584383
11.524000000000001,-0.0014116847211144037
11.528,-0.0014029099229466823
11.532,-0.00139449573292284
11.536,-0.0013830524344904146
11.540000000000001,-0.0014040398284641696
11.544,-0.0014295468445078743
11.548,-0.001403342652719337
11.552,-0.0013889904485929546
11.556000000000001,-0.0013676424464753205
11.56,-0.0013587955266788235
11.564,-0.0013965391790714873
11.568,-0.0014128867482606669
11.572000000000001,-0.0014125261401167878
11.576,-0.001407189139587379
11.58,-0.0014055543826684612
11.584,-0.0013905050027972462
11.588000000000001,-0.0013700945818536975
11.592,-0.0013782924069912124
11.596,-0.0014079584369609875
11.6,-0.00141500231603809
11.604000000000001,-0.0014193536543075627
11.608,-0.0014110596669983468
11.612,-0.0014002895037678285
11.616,-0.0013925244084029684
11.620000000000001,-0.0014011068822272876
11.624,-0.0014055543826684612
11.628,-0.0013973565575309465
11.632,-0.0013812253532280946
11.636000000000001,-0.0013683636627630784
11.64,-0.0013704551899975763
11.644,-0.001383821731864023
11.648,-0.0013843506238083788
11.652000000000001,-0.0013914185434284062
11.656,-0.0014090402613926244
11.66,-0.0014151225187527163
11.664,-0.0014179112217320468
11.668000000000001,-0.0014187766812773562
11.672,-0.001397669084588975
11.676,-0.0013905290433401715
11.68,-0.0014099538020237847
11.684000000000001,-0.001428440979533312
11.688,-0.0014231761006326794
11.692,-0.0014080305585897634
11.696,-0.0014035349770627392
11.700000000000001,-0.0014025733553457286
11.704,-0.0013956737195261778
11.708,-0.0013926446111175946
11.712,-0.0013918993542869115
11.716000000000001,-0.0013908415703982
11.72,-0.001393053300347324
11.724,-0.0013937023950063062
11.728,-0.0013968517061295157
11.732000000000001,-0.0013911060163703777
11.736,-0.0013971642331875444
11.74,-0.001395433314096925
11.744,-0.0013925724894888187
11.748000000000001,-0.0013891587323934314
11.752,-0.001390120354110442
11.756,-0.0014030301256613086
11.76,-0.0014012030443989886
11.764000000000001,-0.0013892789351080577
11.768,-0.0013879086241613177
11.772,-0.0014013713281994654
11.776,-0.0013985585846772097
11.78,-0.0013768980555015472
11.784,-0.001363651716349727
11.788,-0.001377619271789305
11.792,-0.0013900001513958158
11.796,-0.0013910579352845271
11.8,-0.0013822590965738809
11.804,-0.001379710799023803
11.808,-0.0013989432333640138
11.812,-0.0013955775573544766
11.816,-0.0013899761108528905
11.82,-0.0013924522867741925
11.824,-0.0014193776948504878
11.828,-0.0014330808043178879
11.832,-0.0014194498164792637
11.836,-0.0014101461263671868
11.84,-0.0013809128261700662
11.844,-0.001351823769230497
11.848,-0.0013491552689657929
11.852,-0.0013690367979649859
11.856,-0.0013719937847447932
11.86,-0.0013709840819419322
11.864,-0.0013791097854506714
11.868,-0.0013823552587455819
11.872,-0.0013785087718775398
11.876,-0.0013785087718775398
11.88,-0.001377426947445903
11.884,-0.0013812974748568703
11.888,-0.0013793261503369989
11.892,-0.0013832928399196672
11.896,-0.0013822110154880303
11.9,-0.0013743737984943947
11.904,-0.0013768499744156967
11.908,-0.001388750043163702
11.912,-0.0014008664767980348
11.916,-0.0014109154237407953
11.92,-0.0013933658274053525
11.924,-0.0013639882839506805
11.928,-0.0013654307165261964
11.932,-0.0013894952999943852
11.936,-0.0013959141249554304
11.94,-0.0013947361383520925
11.944,-0.0013918753137439862
11.948,-0.0013880288268759442
11.952,-0.0013778356366756324
11.956,-0.0013726909604896262
11.96,-0.001372859244290103
11.964,-0.0013741093525222166
11.968,-0.001387307610588186
11.972,-0.0014009385984268107
11.976,-0.0013883173133910473
11.98,-0.0013803118125969346
11.984,-0.0013737968254641882
11.988,-0.0013753113796684798
11.992,-0.0013910098541986768
11.996,-0.0014047370042090024
12.0,-0.0013917070299435093
12.004,-0.0013832207182908915
12.008000000000001,-0.0013914185434284062
12.012,-0.001390577124426022
12.016,-0.0013903848000826199
12.02,-0.0013842304210937525
12.024000000000001,-0.0013809368667129914
12.028,-0.0014079824775039128
12.032,-0.0014087036937916707
12.036,-0.0013955294762686263
12.040000000000001,-0.0013900001513958158
12.044,-0.0013907213676835736
12.048,-0.0013860334618131472
12.052,-0.00139952020639422
12.056000000000001,-0.0013993759631366685
12.06,-0.0013744699606660956
12.064,-0.001351823769230497
12.068,-0.0013688444736215837
12.072000000000001,-0.0014065881260142475
12.076,-0.0014064198422137706
12.08,-0.0013960824087559073
12.084,-0.0013888221647924777
12.088000000000001,-0.001385744975298044
12.092,-0.001380528177483262
12.096,-0.0013735323794920103
12.1,-0.0013853122455253894
12.104000000000001,-0.0013896395432519367
12.108,-0.001384182340007902
12.112,-0.0013931254219761
12.116,-0.0014121414914299837
12.120000000000001,-0.0013952890708393735
12.124,-0.0013750950147821525
12.128,-0.0013691089195937616
12.132,-0.0013628102973473426
12.136000000000001,-0.0013560068236994928
12.14,-0.0013686521492781815
12.144,-0.001391033894741602
12.148,-0.0013681232573338259
12.152000000000001,-0.0013613438242289016
12.156,-0.0013808647450842156
12.16,-0.0013799752449959808
12.164,-0.0013917791515722852
12.168000000000001,-0.001389206813479282
12.172,-0.001388750043163702
12.176,-0.0013980777738187044
12.18,-0.0013990153549927897
12.184000000000001,-0.0014033186121764117
12.188,-0.0014153629241819689
12.192,-0.0014126703833743394
12.196,-0.0013968517061295157
12.200000000000001,-0.001356655918358475
12.204,-0.0013387457138791538
12.208,-0.0013681953789626015
12.212,-0.0013912502596279293
12.216000000000001,-0.0013951207870388966
12.22,-0.001387307610588186
12.224,-0.001377715433961006
12.228,-0.0013794223125086998
12.232000000000001,-0.0013658394057559258
12.236,-0.0013569444048735781
12.24,-0.0013814176775714968
12.244,-0.0013934379490341284
12.248000000000001,-0.001383557285891845
12.252,-0.0013840380967503503
12.256,-0.00139266865166052
12.26,-0.001398678787391836
12.264000000000001,-0.0014004577875683054
12.268,-0.001393053300347324
12.272,-0.0013841582994649766
12.276,-0.0013760806770420882
12.280000000000001,-0.0013768499744156967
12.284,-0.0013710562035707079
12.288,-0.0013771144203878745
12.292,-0.001385384367154165
12.296,-0.0013688204330786584
12.3,-0.0013634113109204742
12.304,-0.0013717293387726153
12.308,-0.0013746622850094978
12.312,-0.0013721139874594195
12.316,-0.0013737487443783378
12.32,-0.0013771144203878745
12.324,-0.001379614636852102
12.328,-0.001382547583088984
12.332,-0.0013823552587455819
12.336,-0.001378893420564344
12.34,-0.0013827399074323862
12.344,-0.001385384367154165
12.348,-0.0013625218108322395
12.352,-0.0013382408624777234
12.356,-0.0013639642434077554
12.36,-0.0013949044221525694
12.364,-0.001393317746319502
12.368,-0.0013756239067265082
12.372,-0.001365406675983271
12.376,-0.001354107620808397
12.38,-0.0013692772033942384
12.384,-0.0013798790828242799
12.388,-0.0013713687306287363
12.392,-0.0013718255009443163
12.396,-0.0013840621372932756
12.4,-0.0013846150697805566
12.404,-0.0013801194882535324
12.408,-0.001375503704011882
12.412,-0.0013756479472694335
12.416,-0.001372594798317925
12.42,-0.0013791097854506714
12.424,-0.0013847112319522578
12.428,-0.001386297907785325
12.432,-0.0013913223812567052
12.436,-0.0013840380967503503
12.44,-0.0013629305000619689
12.444,-0.0013493235527662698
12.448,-0.0013467992957591172
12.452,-0.0013669933518163384
12.456,-0.0013589878510222256
12.46,-0.001362281405402987
12.464,-0.0013779558393902588
12.468,-0.0013670173923592637
12.472,-0.0013702147845683237
12.476,-0.0013770903798449492
12.48,-0.001368339622220153
12.484,-0.0013740612714363662
12.488,-0.0013799992855389061
12.492,-0.0013700465007678469
12.496,-0.0013699984196819963
12.5,-0.0013698060953385943
12.504,-0.0013573530941033076
12.508000000000001,-0.0013451885793831244
12.512,-0.001341846943916513
12.516,-0.0013347069026677094
12.52,-0.0013497803230818498
12.524000000000001,-0.0013601177565397131
12.528,-0.0013601417970826384
12.532,-0.0013665125409578333
12.536,-0.0013585310807066456
12.540000000000001,-0.0013502851744832802
12.544,-0.0013450924172114234
12.548,-0.0013521362962885255
12.552,-0.0013720418658306438
12.556000000000001,-0.0013704551899975763
12.56,-0.0013809128261700662
12.564,-0.0013874518538457377
12.568,-0.001371320649542886
12.572000000000001,-0.0013658874868417764
12.576,-0.001349996687968177
12.58,-0.0013199219687686722
12.584,-0.0013413661330580076
12.588000000000001,-0.0013649258651247658
12.592,-0.0013523286206319277
12.596,-0.0013485782959355866
12.6,-0.0013503813366549813
12.604000000000001,-0.001351174674571515
12.608,-0.0013527853909475077
12.612,-0.0013540595397225465
12.616,-0.0013538672153791446
12.620000000000001,-0.0013481696067058572
12.624,-0.0013433855386637296
12.628,-0.001344611606352918
12.632,-0.001346054038928434
12.636000000000001,-0.0013349713486398873
12.64,-0.0013141762790095342
12.644,-0.0013466550525015656
12.648,-0.0013849035562956598
12.652000000000001,-0.0013643488920945595
12.656,-0.001359660986224133
12.66,-0.001378893420564344
12.664,-0.0013586272428783466
12.668000000000001,-0.0013380485381343213
12.672,-0.0013437942278934592
12.676,-0.001356102985871194
12.68,-0.0013644690948091858
12.684000000000001,-0.0013562712696716709
12.688,-0.001344683727981694
12.692,-0.0013506457826271592
12.696,-0.0013480974850770813
12.700000000000001,-0.0013426402818330465
12.704,-0.0013425200791184202
12.708,-0.0013471358633600707
12.712,-0.0013479532418195297
12.716000000000001,-0.001342327754775018
12.72,-0.0013417267412018864
12.724,-0.0013330961862917168
12.728,-0.0013161476035294059
12.732000000000001,-0.001332663456519062
12.736,-0.0013226866312050776
12.74,-0.0013406689573131749
12.744,-0.0013615842296581541
12.748000000000001,-0.0013524969044324045
12.752,-0.0013538672153791446
12.756,-0.0013511025529427392
12.76,-0.0013457415118704056
12.764000000000001,-0.0013496360798242982
12.768,-0.001348602336478512
12.772,-0.0013496601203672235
12.776,-0.001352833472033358
12.780000000000001,-0.0013557664182702403
12.784,-0.001355117323611258
12.788,-0.001349059106794092
12.792,-0.0013508861880564117
12.796000000000001,-0.0013323749700039588
12.8,-0.0013135752654364027
12.804,-0.0013268937262169989
12.808,-0.0013341299296375031
12.812,-0.0013181910496780534
12.816,-0.001318263171306829
12.82,-0.001352544985518255
12.824,-0.0013478811201907538
12.828,-0.0013383610651923497
12.832,-0.0013444673630953665
12.836,-0.0013402362275405201
12.84,-0.001349612039281373
12.844,-0.0013582666347344676
12.848,-0.001350357296112056
12.852,-0.0013420392682599149
12.856,-0.001335740646013496
12.86,-0.001326725442416522
12.864,-0.0013156427521279755
12.868,-0.0013146330493251143
12.872,-0.0013075410891621615
12.876,-0.0013089354406518269
12.88,-0.00132973051028218
12.884,-0.0013304517265699378
12.888,-0.0013337933620365494
12.892,-0.0013310527401430693
12.896,-0.0013400679437400433
12.9,-0.0013324230510898094
12.904,-0.0013221577392607217
12.908,-0.0013520401341168245
12.912,-0.0013674741626748437
12.916,-0.0013568963237877275
12.92,-0.001335235794612065
12.924,-0.0013141762790095342
12.928,-0.0013118683868887091
12.932,-0.0013257638206995114
12.936,-0.0013277832263052336
12.94,-0.001327254334360878
12.944,-0.001332302848375183
12.948,-0.0013312691050293968
12.952,-0.001326172509929241
12.956,-0.0013175179144761459
12.96,-0.0013119885896033354
12.964,-0.0013161716440723312
12.968,-0.0013287448480222442
12.972,-0.0013444673630953665
12.976,-0.0013415103763155592
12.98,-0.001331749915887902
12.984,-0.0013446596874387687
12.988,-0.001330740213085041
12.992,-0.0013316297131732756
12.996,-0.0013525690260611802
13.0,-0.0013353319567837663
13.004,-0.0013160033602718543
13.008000000000001,-0.0013106904002853712
13.012,-0.001321364401344188
13.016,-0.001323888658351341
13.02,-0.0013317979969737525
13.024000000000001,-0.0013359810514427487
13.028,-0.0013255714963561094
13.032,-0.0013292977805095252
13.036,-0.001334033767465802
13.040000000000001,-0.0013152821439840964
13.044,-0.0013035022779507173
13.048,-0.001307757454048489
13.052,-0.001321725009488067
13.056000000000001,-0.0013270620100174757
13.06,-0.0013142484006383101
13.064,-0.0013110990895151007
13.068,-0.0013262446315580167
13.072000000000001,-0.0013323749700039588
13.076,-0.0013199460093115975
13.08,-0.0013087911973942753
13.084,-0.001317349630675669
13.088000000000001,-0.0013262205910150914
13.092,-0.0013269658478457745
13.096,-0.0013325432538044356
13.1,-0.0013166764954737618
13.104000000000001,-0.0013016030750596216
13.108,-0.0012946793986971456
13.112,-0.0013000404397694794
13.116,-0.0012984297233934866
13.120000000000001,-0.0012926840336343487
13.124,-0.0013035984401224185
13.128,-0.0013176140766478469
13.132,-0.0013055697646422902
13.136000000000001,-0.001299535588368049
13.14,-0.0013064352241875996
13.144,-0.0013042234942384754
13.148,-0.0013047043050969805
13.152000000000001,-0.0013047283456399058
13.156,-0.001307300683732909
13.16,-0.0013229751177201807
13.164,-0.0013206672255993554
13.168000000000001,-0.0013106423191995206
13.172,-0.0013058101700715427
13.176,-0.00131242131937599
13.18,-0.0013023964129761554
13.184000000000001,-0.0012999202370548532
13.188,-0.0013079497783918912
13.192,-0.0013108346435429228
13.196,-0.0013129021302344954
13.200000000000001,-0.001305281278127187
13.204,-0.0013038628860945964
13.208,-0.0012971074935325972
13.212,-0.0013092720082527806
13.216000000000001,-0.0013144407249817123
13.22,-0.001291626249745637
13.224,-0.0013068919945031796
13.228,-0.0013242973475810704
13.232000000000001,-0.0013077093729626384
13.236,-0.0012992951829387963
13.24,-0.0012963141556160635
13.244,-0.0013012905480015932
13.248000000000001,-0.0012928282768919002
13.252,-0.0012788847619952474
13.256,-0.0012806156810858662
13.26,-0.001305016832155009
13.264000000000001,-0.0013122770761184385
13.268,-0.0013070602783036565
13.272,-0.0013055697646422902
13.276,-0.0012865536951884066
13.280000000000001,-0.0012834765056939726
13.284,-0.0012982373990500845
13.288,-0.0013043196564101764
13.292,-0.001296530520502391
13.296000000000001,-0.0013042234942384754
13.3,-0.0013079016973060406
13.304,-0.0012812407352019231
13.308,-0.0012842698436105063
13.312000000000001,-0.0013125415220906164
13.316,-0.001317253468503968
13.32,-0.0013260042261287641
13.324,-0.0013182150902209784
13.328,-0.0013053293592130374
13.332,-0.0012974200205906256
13.336,-0.0012902318982559717
13.34,-0.0012764085860739452
13.344,-0.0012787885998235462
13.348,-0.001289246235996036
13.352,-0.0012964824394165403
13.356,-0.001286072884329901
13.36,-0.001276480707702721
13.364,-0.0012796540593688558
13.368,-0.0012841015598100294
13.372,-0.00128414964089588
13.376,-0.0012808320459721937
13.38,-0.0012665038823887367
13.384,-0.001277201923990479
13.388,-0.001291794533546114
13.392,-0.0012853757085850685
13.396,-0.0012822744785477094
13.4,-0.0013020598453752016
13.404,-0.0013057861295286174
13.408,-0.001304295615867251
13.412,-0.0013059784538720196
13.416,-0.0013003289262845826
13.42,-0.0013003529668275079
13.424,-0.0013070121972178059
13.428,-0.0013039590482662974
13.432,-0.0012893904792535876
13.436,-0.0012661913553307083
13.44,-0.001278956883624023
13.444,-0.0012991990207670953
13.448,-0.001304920669983308
13.452,-0.001297732547648654
13.456,-0.0012876355196200435
13.46,-0.0012834284246081222
13.464,-0.0012789088025381727
13.468,-0.001274293018296522
13.472,-0.0012778990997353115
13.476,-0.0012882846142790254
13.48,-0.0013110990895151007
13.484,-0.001324802198982501
13.488,-0.001304824507811607
13.492,-0.0013034301563219417
13.496,-0.0013096566569395847
13.5,-0.0013060265349578702
13.504,-0.0013167486171025374
13.508000000000001,-0.0013246819962678747
13.512,-0.0013157389142996764
13.516,-0.0013084786703362469
13.52,-0.0012836688300373747
13.524000000000001,-0.0012511419754594932
13.528,-0.0012814090190024
13.532,-0.001314416684438787
13.536,-0.0013194892389960175
13.540000000000001,-0.0013084546297933216
13.544,-0.0013068198728744037
13.548,-0.0013137195086939542
13.552,-0.0013097047380254353
13.556000000000001,-0.001310666359742446
13.56,-0.0013147532520397405
13.564,-0.0013138156708656554
13.568,-0.0013227587528338532
13.572000000000001,-0.001345597268612854
13.576,-0.0013379523759626203
13.58,-0.0013210759148290848
13.584,-0.0012892221954531108
13.588000000000001,-0.001286505614102556
13.592,-0.001300641453342611
13.596,-0.0013103778732273428
13.6,-0.0013060986565866458
13.604000000000001,-0.00130008852085533
13.608,-0.0012868181411605844
13.612,-0.0013004250884562838
13.616,-0.0013145609276963386
13.620000000000001,-0.0013259801855858388
13.624,-0.001328456361507141
13.628,-0.0013224943068616754
13.632,-0.001322542387947526
13.636000000000001,-0.0013134791032647017
13.64,-0.0013165562927591353
13.644,-0.001329922834625582
13.648,-0.0013230472393489564
13.652000000000001,-0.00130785361622019
13.656,-0.0013025646967766322
13.66,-0.0013085027108791722
13.664,-0.0012920349389753665
13.668000000000001,-0.0012929484796065265
13.672,-0.0013131906167495985
13.676,-0.0013144407249817123
13.68,-0.0012992951829387963
13.684000000000001,-0.0012906886685715518
13.688,-0.0012891019927384845
13.692,-0.001315354265612872
13.696,-0.001343770187350534
13.700000000000001,-0.0013436499846359077
13.704,-0.001326725442416522
13.708,-0.00131927287410969
13.712,-0.0013209076310286081
13.716000000000001,-0.0013229029960914048
13.72,-0.0013256916990707357
13.724,-0.0013286246453076177
13.728,-0.001333576997150222
13.732000000000001,-0.0013286006047646926
13.736,-0.001317806400991249
13.74,-0.001307829575677265
13.744,-0.0013018675210317995
13.748000000000001,-0.0013023002508044542
13.752,-0.0013154744683274986
13.756,-0.0013111952516868016
13.76,-0.0013016751966883975
13.764000000000001,-0.001289606844139915
13.768,-0.001279485775568379
13.772,-0.0012827072083203641
13.776,-0.001319080549766288
13.780000000000001,-0.0013331442673775672
13.784,-0.0013358368081851971
13.788,-0.0013429287683481496
13.792,-0.0013302353616836105
13.796000000000001,-0.0013207633877710563
13.8,-0.0013089354406518269
13.804,-0.001311676062545307
13.808,-0.0013126376842623176
13.812000000000001,-0.0013128540491486448
13.816,-0.0013125655626335417
13.82,-0.0013091758460810796
13.824,-0.0013064592647305249
13.828,-0.0013079738189348165
13.832,-0.0013110990895151007
13.836,-0.0012967228448457929
13.84,-0.0012990547775095437
13.844,-0.0013081421027352931
13.848,-0.0013106182786565954
13.852,-0.00131013746779809
13.856,-0.0013214124824300385
13.86,-0.0013283121182495893
13.864,-0.0013389861193084066
13.868,-0.0013259801855858388
13.872,-0.0013128540491486448
13.876,-0.001318167009135128
13.88,-0.0013247781584395757
13.884,-0.0013209557121144585
13.888,-0.00131150777874483
13.892,-0.0013252349287551557
13.896,-0.001330571929284564
13.9,-0.001325811901785362
13.904,-0.001317806400991249
13.908,-0.0013117962652599332
13.912,-0.0013027570211200342
13.916,-0.0013043196564101764
13.92,-0.0013096566569395847
13.924,-0.0013140801168378333
13.928,-0.0013142724411812354
13.932,-0.001303838845551671
13.936,-0.0012949678852122487
13.94,-0.001297540223305252
13.944,-0.001341486335772634
13.948,-0.0013491552689657929
13.952,-0.0013564876345579981
13.956,-0.0013560549047853434
13.96,-0.0013450443361255728
13.964,-0.0013481696067058572
13.968,-0.001345693430784555
13.972,-0.0013210518742861597
13.976,-0.0013098730218259122
13.98,-0.0013037186428370448
13.984,-0.0013080940216494428
13.988,-0.0013101615083410153
13.992,-0.0013158591170143027
13.996,-0.0013187439821653343
14.0,-0.0013137435492368795
14.004,-0.0013156427521279755
14.008000000000001,-0.0013125415220906164
14.012,-0.001310762521914147
14.016,-0.0012943428310961918
14.02,-0.0012977085071057288
14.024000000000001,-0.0013266052397018957
14.028,-0.0013285044425929914
14.032,-0.0013126617248052426
14.036,-0.0013398756193966413
14.040000000000001,-0.0013592282564514782
14.044,-0.0013486504175643623
14.048,-0.0013358608487281222
14.052,-0.001324633915182024
14.056000000000001,-0.0013031657103497638
14.06,-0.001310954846257549
14.064,-0.0013392746058235097
14.068,-0.0013327115376049125
14.072000000000001,-0.0013398034977678654
14.076,-0.0013397794572249401
14.08,-0.001341414214143858
14.084,-0.0013422796736891676
14.088000000000001,-0.001345525146984078
14.092,-0.0013357887270993465
14.096,-0.0013129982924061964
14.1,-0.001296073750186811
14.104000000000001,-0.0012981652774213088
14.108,-0.0013297064697392546
14.112,-0.001354660553295678
14.116,-0.001356655918358475
14.120000000000001,-0.001352737309861657
14.124,-0.0013278553479340095
14.128,-0.0013239126988942663
14.132,-0.0013348992270111116
14.136000000000001,-0.0013341780107233535
14.14,-0.0013547807560103046
14.144,-0.001347520512046875
14.148,-0.0013269658478457745
14.152000000000001,-0.0013203787390842522
14.156,-0.0013233116853211347
14.16,-0.0013298266724538809
14.164,-0.001324441590838622
14.168000000000001,-0.0013214124824300385
14.172,-0.0013349232675540367
14.176,-0.0013308123347138168
14.18,-0.0013263407937297179
14.184000000000001,-0.001330836375256742
14.188,-0.0013343462945238304
14.192,-0.0013453568631836012
14.196,-0.0013348751864681863
14.200000000000001,-0.0013365820650158803
14.204,-0.001359853310567535
14.208,-0.001368315581677228
14.212,-0.0013481696067058572
14.216000000000001,-0.0013329038619483147
14.22,-0.0013161235629864806
14.224,-0.0013295381859387777
14.228,-0.0013382168219347981
14.232000000000001,-0.0013383610651923497
14.236,-0.0013408853221995023
14.24,-0.0013386495517074529
14.244,-0.001336485902844179
14.248000000000001,-0.001335548321670094
14.252,-0.0013336971998648484
14.256,-0.0013391303625659582
14.26,-0.0013435297819212812
14.264000000000001,-0.0013422075520603918
14.268,-0.001346246363271836
14.272,-0.0013468714173878928
14.276,-0.0013626420135468657
14.280000000000001,-0.0013459097956708824
14.284,-0.0013223981446899744
14.288,-0.00131835933347853
14.292,-0.0013244896719244725
14.296000000000001,-0.001339851578853716
14.3,-0.0013425681602042708
14.304,-0.0013393226869093601
14.308,-0.0013380725786772466
14.312000000000001,-0.0013254032125556326
14.316,-0.0013290573750802726
14.32,-0.0013282880777066642
14.324,-0.0013277591857623083
14.328000000000001,-0.001331004659057219
14.332,-0.0013328798214053894
14.336,-0.0013301391995119093
14.34,-0.0013287929291080946
14.344,-0.001331485469915724
14.348,-0.0013362454974149265
14.352,-0.0013321345645747062
14.356,-0.0013312210239435462
14.36,-0.0013279515101057105
14.364,-0.0013192247930238397
14.368,-0.0013102336299697912
14.372,-0.001316436090044509
14.376,-0.0013236482529220884
14.38,-0.0013380004570484707
14.384,-0.0013304998076557883
14.388,-0.0013247781584395757
14.392,-0.001349612039281373
14.396,-0.0013437942278934592
14.4,-0.0013325192132615103
14.404,-0.0013266773613306714
14.408,-0.0013293458615953758
14.412,-0.0013369186326168338
14.416,-0.0013282640371637389
14.42,-0.0013269418073028495
14.424,-0.00132155672568759
14.428,-0.0013344184161526063
14.432,-0.001342327754775018
14.436,-0.0013345386188672325
14.44,-0.001344419282009516
14.444,-0.0013280476722774114
14.448,-0.0013192007524809144
14.452,-0.0013497803230818498
14.456,-0.0013527132693187318
14.46,-0.0013325432538044356
14.464,-0.001316964981988865
14.468,-0.0013249704827829778
14.472,-0.0013289371723656461
14.476,-0.0013351877135262147
14.48,-0.0013372311596748622
14.484,-0.0013400198626541929
14.488,-0.0013357646865564212
14.492,-0.0013363416595866275
14.496,-0.001345236660468975
14.5,-0.001339394808538136
14.504,-0.0013368705515309834
14.508000000000001,-0.001341486335772634
14.512,-0.001341221889800456
14.516,-0.001344226957666114
14.52,-0.001335235794612065
14.524000000000001,-0.0013084786703362469
14.528,-0.0013137435492368795
14.532,-0.0013536268099498918
14.536,-0.0013544441884093508
14.540000000000001,-0.001341943106088214
14.544,-0.001334394375609681
14.548,-0.0013344184161526063
14.552,-0.0013149215358402174
14.556000000000001,-0.0013059784538720196
14.56,-0.0013271581721891767
14.564,-0.0013449481739538718
14.568,-0.0013493235527662698
14.572000000000001,-0.0013383610651923497
14.576,-0.00133201436186008
14.58,-0.0013279515101057105
14.584,-0.0013237444150937894
14.588000000000001,-0.0013295862670246283
14.592,-0.0013363416595866275
14.596,-0.0013398756193966413
14.6,-0.001334851145925261
14.604000000000001,-0.0013370628758743854
14.608,-0.0013315816320874252
14.612,-0.00133201436186008
14.616,-0.001329105456166123
14.620000000000001,-0.0013468473768449675
14.624,-0.0013394669301669117
14.628,-0.0013145609276963386
14.632,-0.0013312691050293968
14.636000000000001,-0.0013581464320198413
14.64,-0.0013512467962002908
14.644,-0.0013486504175643623
14.648,-0.0013512467962002908
14.652000000000001,-0.0013477368769332023
14.656,-0.0013441067549514877
14.66,-0.0013437461468076087
14.664,-0.001348986985165316
14.668000000000001,-0.0013473281877034728
14.672,-0.001358939769936375
14.676,-0.0013744459201231703
14.68,-0.0013716572171438395
14.684000000000001,-0.001347159903902996
14.688,-0.0013368945920739087
14.692,-0.0013554298506692865
14.696,-0.001350453458283757
14.700000000000001,-0.0013192007524809144
14.704,-0.0013458617145850318
14.708,-0.0013737006632924872
14.712,-0.00136165635128693
14.716000000000001,-0.0013527132693187318
14.72,-0.0013500447690540276
14.724,-0.0013457174713274803
14.728,-0.0013523286206319277
14.732000000000001,-0.0013528575125762833
14.736,-0.0013448520117821708
14.74,-0.001336101254157375
14.744,-0.0013327355781478378
14.748000000000001,-0.0013363416595866275
14.752,-0.001342231592603317
14.756,-0.0013423517953179433
14.76,-0.0013178544820770996
14.764000000000001,-0.0013224221852328995
14.768,-0.0013677626491899468
14.772,-0.0013704551899975763
14.776,-0.001355189445240034
14.780000000000001,-0.0013530498369196855
14.784,-0.0013491071878799423
14.788,-0.001346703133587416
14.792,-0.0013452847415548256
14.796000000000001,-0.0013421113898886908
14.8,-0.001339755416682015
14.804,-0.0013486504175643623
14.808,-0.0013574011751891582
14.812000000000001,-0.0013674501221319184
14.816,-0.0013662480949856552
14.82,-0.0013596850267670582
14.824,-0.0013550452019824824
14.828000000000001,-0.001359949472739236
14.832,-0.0013508861880564117
14.836,-0.0013542278235230234
14.84,-0.0013461982821859856
14.844000000000001,-0.001315522549413349
14.848,-0.00132201349600317
14.852,-0.0013357887270993465
14.856,-0.0013388899571367054
14.86,-0.0013320624429459303
14.864,-0.0013377600516192181
14.868,-0.0013489389040794654
14.872,-0.0013506217420842339
14.876,-0.0013412459303433814
14.88,-0.0013448279712392455
14.884,-0.0013628824189761185
14.888,-0.0013633872703775489
14.892,-0.0013673299194172921
14.896,-0.0013608630133703963
14.9,-0.0013430249305198508
14.904,-0.0013335529566072968
14.908,-0.0013253791720127073
14.912,-0.0013260523072146147
14.916,-0.001343601903550057
14.92,-0.0013402602680834454
14.924,-0.0013375196461899654
14.928,-0.0013412699708863064
14.932,-0.0013464386876152381
14.936,-0.0013386976327933035
14.94,-0.001326364834272643
14.944,-0.001317710238819548
14.948,-0.0013237684556367147
14.952,-0.001342327754775018
14.956,-0.0013458376740421065
14.96,-0.001333937605294101
14.964,-0.0013355002405842434
14.968,-0.0013473281877034728
14.972,-0.001349804363624775
14.976,-0.0013413661330580076
14.98,-0.001347159903902996
14.984,-0.0013410055249141286
14.988,-0.00133018728059776
14.992,-0.001324802198982501
14.996,-0.00132155672568759
15.0,-0.00132247026631875
15.004,-0.001327735145219383
15.008000000000001,-0.001333312551178044
15.012,-0.0013389139976796307
15.016,-0.0013327836592336884
15.02,-0.001331653753716201
15.024000000000001,-0.0013306921319991905
15.028,-0.001332855780862464
15.032,-0.0013348992270111116
15.036,-0.0013264129153584936
15.040000000000001,-0.0013251387665834547
15.044,-0.0013381927813918728
15.048,-0.001333576997150222
15.052,-0.001329922834625582
15.056000000000001,-0.0013355964027559444
15.06,-0.0013241290637805935
15.064,-0.001324898361154202
15.068,-0.0013300670778831336
15.072000000000001,-0.0013360772136144497
15.076,-0.0013171573063322669
15.08,-0.0013051851159554858
15.084,-0.0013170851847034912
15.088000000000001,-0.0013263167531867926
15.092,-0.0013261003883004651
15.096,-0.001323816536722565
15.1,-0.0013245858340961735
15.104000000000001,-0.0013191286308521385
15.108,-0.0013179506442488006
15.112,-0.0013072285621041333
15.116,-0.0013177342793624734
15.120000000000001,-0.0013276870641335326
15.124,-0.0013377360110762928
15.128,-0.0013401641059117445
15.132,-0.0013255714963561094
15.136000000000001,-0.0013194892389960175
15.14,-0.0013161956846152565
15.144,-0.001324177144866444
15.148,-0.0013277832263052336
15.152000000000001,-0.0013272062532750273
15.156,-0.0013295862670246283
15.16,-0.0013252349287551557
15.164,-0.001320811468856907
15.168000000000001,-0.0013179506442488006
15.172,-0.0013214124824300385
15.176,-0.001323359766406985
15.18,-0.0013195613606247932
15.184000000000001,-0.0013117962652599332
15.188,-0.001326629280244821
15.192,-0.0013242011854093694
15.196,-0.001314416684438787
15.200000000000001,-0.0013189603470516616
15.204,-0.00133429821343798
15.208,-0.0013396592545103139
15.212,-0.001359660986224133
15.216000000000001,-0.0013442029171231887
15.22,-0.0013079738189348165
15.224,-0.0012979008314491307
15.228,-0.0013103538326844175
15.232000000000001,-0.0013215086446017397
15.236,-0.001329177577794899
15.24,-0.0013304998076557883
15.244,-0.0013302594022265356
15.248000000000001,-0.001323720374550864
15.252,-0.0013177583199053984
15.256,-0.001319537320081868
15.26,-0.0013076132107909374
15.264000000000001,-0.0013081901838211437
15.268,-0.0013309565779713684
15.272,-0.001332302848375183
15.276,-0.001326268672100942
15.280000000000001,-0.0013282399966208136
15.284,-0.00130237237243323
15.288,-0.001330115158968984
15.292,-0.0013731958118910566
15.296000000000001,-0.001348890822993615
15.3,-0.0013216769284022164
15.304,-0.001316796698188388
15.308,-0.001331749915887902
15.312000000000001,-0.0013212201580866363
15.316,-0.0013081901838211437
15.32,-0.0013170611441605659
15.324,-0.0013244656313815472
15.328000000000001,-0.0013297064697392546
15.332,-0.0013295862670246283
15.336,-0.0013234799691216115
15.34,-0.0013261965504721663
15.344000000000001,-0.0013186718605365585
15.348,-0.0013114837382019048
15.352,-0.00130237237243323
15.356,-0.0013105461570278195
15.36,-0.0013228789555484795
15.364,-0.0013056178457281405
15.368,-0.0012989826558807678
15.372,-0.0013221336987177964
15.376,-0.0013402602680834454
15.38,-0.0013425681602042708
15.384,-0.001330740213085041
15.388,-0.0013159552791860037
15.392,-0.0013100893867122397
15.396,-0.0013130223329491217
15.4,-0.0013347309432106347
15.404,-0.00133429821343798
15.408,-0.001331749915887902
15.412,-0.0013315575915445
15.416,-0.0013268937262169989
15.42,-0.001324273307038145
15.424,-0.001326821604588223
15.428,-0.0013333606322638947
15.432,-0.001319801766054046
15.436,-0.0013060265349578702
15.44,-0.0013112914138585028
15.444,-0.0013288650507368705
15.448,-0.0013451164577543487
15.452,-0.0013409574438282782
15.456,-0.001323095320434807
15.46,-0.0013104259543131932
15.464,-0.001302925304920511
15.468,-0.0013079738189348165
15.472,-0.0012961699123585119
15.476,-0.0012913137226876086
15.48,-0.0013117001030882322
15.484,-0.0013208835904856828
15.488,-0.0013282880777066642
15.492,-0.0013205951039705797
15.496,-0.0013056659268139911
15.5,-0.001295641020414156
15.504,-0.001298093155792533
15.508000000000001,-0.0012975161827623266
15.512,-0.0013015790345166963
15.516,-0.0012947755608688466
15.52,-0.0013032618725214648
15.524000000000001,-0.0013188401443370353
15.528,-0.0013278313073910842
15.532,-0.0013155465899562743
15.536,-0.0013146330493251143
15.540000000000001,-0.001326725442416522
15.544,-0.0013293699021383009
15.548,-0.0013420633088028402
15.552,-0.0013428806872622992
15.556000000000001,-0.0013283361587925146
15.56,-0.001314873454754367
15.564,-0.0013080219000206669
15.568,-0.001289318357624812
15.572000000000001,-0.0012763364644451695
15.576,-0.0012837409516661504
15.58,-0.0012935975742655087
15.584,-0.001297996993620832
15.588000000000001,-0.001301098223658191
15.592,-0.0013016030750596216
15.596,-0.0013004972100850594
15.6,-0.0012864334924737803
15.604000000000001,-0.0012782356673362652
15.608,-0.001311676062545307
15.612,-0.001331028699600144
15.616,-0.0013156908332138258
15.620000000000001,-0.0013112673733155775
15.624,-0.0013217971311168428
15.628,-0.0013182391307639037
15.632,-0.0012906405874857014
15.636000000000001,-0.001283861154380777
15.64,-0.0012994153856534228
